t,V,theta,vX,vY ,X,Y
0.0,40000.0,12.000000000000002,39125.90402935223,8316.467632710373,-5071492000.0,0.0
2125.2560681999157,40010.41316956516,11.99684654014128,39136.54742994732,8316.478657628912,-4988328312.011197,17674623.30240591
4250.512136399831,40021.18426531898,11.993619839832418,39147.55169400012,8316.512872845457,-4905141630.172221,35349293.466361865
6375.768204599747,40032.33201349484,11.990317868186452,39158.93544657205,8316.572679288429,-4821931168.42551,53024062.20096095
8501.024272799663,40043.87646426047,11.98693857680008,39170.71861162396,8316.660732164673,-4738696099.808069,70698986.5729286
10626.28034099958,40055.839110206274,11.983479909491493,39182.922526651426,8316.779971429023,-4655435553.5753,88374129.57734679
12751.536409199494,40068.24301771274,11.979939814343968,39195.57006960097,8316.933656431675,-4572148612.068923,106049560.7772547
14876.79247739941,40081.11297284865,11.97631625851571,39208.68579961816,8317.12540539564,-4488834307.301352,123725357.02164185
17002.048545599326,40094.47564369705,11.972607246370082,39222.29611340502,8317.359240491496,-4405491617.225359,141401603.25284824
19127.304613799242,40108.35976129146,11.968810841594463,39236.42941922757,8317.639639414376,-4322119461.653856,159078393.41614825
21252.56068199916,40122.79632168005,11.964925194115281,39251.116330921795,8317.971594533517,-4238716697.7899375,176755831.48637936
23377.816750199072,40137.81881202878,11.960948572786885,39266.38988460712,8318.360680883927,-4155282115.322032,194434032.628942
25503.07281839899,40153.463464137654,11.956879405041093,39282.28578123901,8318.813134510543,-4071814431.032808,212113124.51542765
27628.328886598905,40169.76953929095,11.952716324941283,39298.84265863053,8319.335942967364,-3988312282.863349,229793248.8176214
29753.58495479882,40186.77964900994,11.948458231402366,39316.10239715975,8319.9369501294,-3904774223.365831,247474562.90779775
31878.841022998735,40204.54011704482,11.944104358731021,39334.11046407502,8320.6249779094,-3821198712.4682827,265157241.79822782
34004.09709119865,40223.101388858384,11.939654362128957,39352.91630213441,8321.40996800336,-3737584109.4637885,282841480.3588332
36129.35315939857,40242.51849594706,11.935108421410913,39372.573769296454,8322.303147443628,-3653928664.123334,300527495.85918456
38254.609227598485,40262.85158365463,11.930467366950982,39393.14163734911,8323.317222547279,-3570230506.8160963,318215530.88984084
40379.8652957984,40284.166512708915,11.9257328328281,39414.68415876349,8324.466606850936,-3486487637.502864,335905856.7287275
42505.12136399832,40306.53554660946,11.92090744334851,39437.27171273834,8325.767689873459,-3402697913.446906,353598777.23131585
44630.37743219823,40330.038139291435,11.915995040651628,39460.98154342166,8327.239155112391,-3318859035.461372,371294633.3393802
46755.633500398144,40354.76184027809,11.911000963049649,39485.898605734525,8328.902357646963,-3234968532.4823427,388993808.32282495
48880.88956859806,40380.803337929945,11.905932386234857,39512.1165371731,8330.781774205028,-3151023744.2210445,406696733.8934478
51006.14563679798,40408.26966554755,11.90079874267617,39539.738777546634,8332.905541705462,-3067021801.606244,424403897.359782
53131.401704997894,40437.27960017353,11.895612238637808,39568.87986296837,8335.306104312347,-2982959604.6770034,442115850.0299403
55256.65777319781,40467.965290200766,11.890388493582789,39599.66692573515,8338.020994200671,-2898833797.52495,459833217.1167692
57381.91384139773,40500.47415562438,11.885147333669691,39632.24143823781,8341.093777894126,-2814640739.8117747,477556709.45934683
59507.16990959764,40534.97111435208,11.879913780153016,39666.76124701988,8344.575208677743,-2730376474.2989917,495287137.4505573
61632.42597779755,40571.641199887665,11.874719285492674,39703.402952895965,8348.524636868124,-2646036689.719642,513025427.6569328
63757.68204599747,40610.69265053455,11.86960328588075,39742.36470508256,8353.01174453792,-2561616678.1913342,530772642.74059826
65882.93811419739,40652.36056879812,11.864615160106391,39783.86949210553,8358.118690870984,-2477111286.2114606,548530005.4525815
68008.1941823973,40696.91127287082,11.859816713155826,39828.16903045566,8363.942780374151,-2392514858.082193,566298927.6736157
70133.45025059722,40744.64749117884,11.855285341422803,39875.54837429635,8370.599801064329,-2307821170.376925,584081045.7487156
72258.70631879714,40795.91458746387,11.851118088749509,39926.33139679981,8378.228226812926,-2223023355.771648,601878263.7169857
74383.96238699705,40851.10804959825,11.84743687421798,39980.88732673526,8386.994541959059,-2138113814.212906,619692806.5083116
76509.21845519697,40910.68253243445,11.84439527151248,40039.63856346065,8397.100033765959,-2053084108.9653254,637527285.8055018
78634.47452339689,40975.16281583965,11.842187357052687,40103.07003974718,8408.789518813046,-1967924844.5618536,655384782.1123973
80759.7305915968,41045.15712596109,11.841059336255396,40171.74045409936,8422.362636654356,-1882625523.0544877,673268947.7076484
82884.98665979672,41121.37337224314,11.841324927869605,40246.295749377394,8438.188577714656,-1797174374.2214003,691184136.7166572
85010.24272799664,41204.638974057605,11.843385869746525,40327.48526502443,8456.72544083493,-1711558154.526622,709135570.6664549
87135.49879619654,41295.92508299305,11.847759455671069,40416.1810197405,8478.545880028183,-1625761908.6719284,727129550.8371272
89260.75486439645,41396.37613246219,11.85511579439057,40513.40055708022,8504.371358416656,-1539768686.5952826,745173732.8285376
91386.01093259637,41507.34572458551,11.86632860230508,40620.33364393515,8535.118262546644,-1453559207.9172313,763277484.5085284
93511.26700079629,41630.43980808227,11.882544945108217,40738.372728524446,8571.960455238754,-1367111465.4571257,781452356.5890999
95636.5230689962,41767.56773202683,11.905281623691122,40869.146209322804,8616.414705110472,-1280400260.2174582,799712706.4562601
97761.77913719612,41921.000725381295,11.936559087787073,41014.55180890039,8670.45798862119,-1193396663.4901,818076531.8654258
99887.03520539604,42093.434964856395,11.979088069586428,41176.783894640444,8736.689031588245,-1106067409.9847274,836566593.3650392
102012.29127359595,42288.05134909029,12.036529557232281,41358.34200864659,8818.55051576591,-1018374243.8080175,855211934.626143
104137.54734179587,42508.55398384424,12.11385452458435,41561.99564740313,8920.632242315773,-930273275.3356,874049949.3577572
106262.80340999579,42759.14994529109,12.21783317162059,41790.65830403338,9049.076337362452,-841714476.8957336,893129190.2364657
108388.0594781957,43044.39724814315,12.357676363850892,42047.085854365236,9212.095614548965,-752641575.0261678,912513158.1529248
110513.31554639562,43368.7870154002,12.545815170078738,42333.254197103946,9420.57727904858,-662992828.1715084,932285314.4477818
112638.57161459554,43735.83434209989,12.798696652218633,42649.19102408173,9688.638221700243,-572703564.2880783,952555436.2094134
114763.82768279545,44146.352284824454,13.137222800492426,42990.976704403954,10033.76011559084,-481711924.11601424,973466988.794306
116889.08375099537,44595.586585624354,13.585985087990109,43347.73467818061,10475.697646742994,-389969896.0503268,995204055.3544568
119014.33981919527,45069.29852957973,14.169819187292537,43698.039530356706,11032.815196121102,-297461851.7809677,1017994068.7790422
121139.59588739519,45540.1681574616,14.906060299267605,44007.69033096686,11714.525493745166,-204230848.68966606,1042099170.2442261
123264.8519555951,45967.97508828431,15.792785246541595,44232.78845676164,12510.601866277275,-110406629.93426752,1067786801.5623714
125390.10802379502,46307.67048168098,16.798351926857716,44331.62081168585,13383.114049011549,-16218844.52739433,1095275635.310504
127515.36409199494,46524.80601411228,17.86189951399631,44282.2442591044,14270.263418304266,78025462.35207853,1124671890.2505178
129640.62016019486,46609.34408026995,18.909655992782977,44093.873014921934,15105.009703304875,172003372.1229507,1155931563.1596286
131765.87622839477,46577.36359679837,19.87834349658553,43802.1312940301,15837.426992062421,265447004.74287727,1188875917.3148522
133891.1322965947,46460.425539846685,20.730416106899604,43452.403500608954,16445.661171382104,358184862.7884045,1223248738.798736
136016.3883647946,46292.05467284354,21.45476415786784,43084.322476362235,16932.08441351398,450141973.17795813,1258778399.7149315
138141.6444329945,46099.333890819194,22.05834082694986,42724.951840137444,17312.62762942607,541315298.3627462,1295218769.0929239
140266.90050119444,45900.675294526154,22.55672066650298,42389.284543123926,17607.40038778009,631744899.5015606,1332365933.5667782
142392.15656939434,45707.07089528145,22.967577596398243,42083.67996830399,17835.364031935373,721491466.7666003,1370059238.1316345
144517.41263759427,45524.2980834461,23.30734606443924,41809.31777137103,18012.292010817855,810622091.9512032,1408175364.8416288
146642.66870579417,45354.86458975655,23.58998881183148,41564.67955540791,18150.513915903564,899202479.36841,1446620703.9279935
148767.9247739941,45199.38616819954,23.826844370177245,41347.06496382553,18259.37372582148,987293266.8470346,1485324344.5230708
150893.180842194,45057.46213051641,24.02691726210338,41153.42561505291,18345.85658368743,1074948680.8016627,1524232393.5526578
153018.43691039394,44928.19698003505,24.197290420720723,40980.783167693444,18415.164806195033,1162216401.8782446,1563303630.5846848
155143.69297859384,44810.497028193255,24.34352314770509,40826.41447984629,18471.18092146557,1249137997.0151136,1602506275.0551927
157268.94904679377,44703.23170274613,24.46998833456244,40687.91426720683,18516.81822705602,1335749572.110521,1641815609.265011
159394.20511499367,44605.31627913262,24.580141891419313,40563.19736856159,18554.278741049773,1422082470.4126723,1681212235.6568038
161519.4611831936,44515.750187030906,24.67673188962629,40450.473970718915,18585.24065645461,1508163934.816774,1720680796.2359884
163644.7172513935,44433.63088209174,24.761958700197248,40348.21499036454,18610.994074935898,1594017700.9483385,1760209026.6249757
165769.97331959344,44358.15477029634,24.837596968361954,40255.11605470615,18632.53944173212,1679664512.3153882,1799787052.4219687
167895.22938779334,44288.61168595012,24.90508849209608,40170.06390684084,18650.65925883587,1765122560.291051,1839406861.6540065
170020.48545599327,44224.37653925432,24.96561313595681,40092.10669778035,18665.970663738433,1850407856.4713721,1879061905.9535086
172145.74152419317,44164.90009543005,25.020143219012766,40020.42846425386,18678.96426402858,1935534546.3838034,1918746796.49791
174270.99759239308,44109.69990723615,25.069485461673406,39954.327557767596,18690.033047403675,2020515173.3626046,1958457070.2531407
176396.253660593,44058.35189416599,25.114313538431997,39893.1985789192,18699.49407799792,2105360900.569789,1998189008.795613
178521.5097287929,44010.48276942642,25.155193505343473,39836.5173187622,18707.60491110337,2190081698.082109,2037939496.7762074
180646.76579699284,43965.76335877636,25.192603793832394,39783.82823081145,18714.57611118168,2274686500.9050894,2077705910.513231
182772.02186519274,43923.90277503164,25.226951036175837,39734.73400927412,18720.580872469374,2359183342.8096194,2117486029.6643636
184897.27793339267,43884.64337485284,25.258582673421632,39688.886909485635,18725.762468430363,2443579470.048128,2157277966.7121167
187022.53400159258,43847.75641094712,25.287797063888906,39645.98150508045,18730.240061797755,2527881438.2985883,2197080110.2997675
189147.7900697925,43813.038291924,25.314851637798597,39605.74862884901,18734.113267460074,2612095195.5949554,2236891079.4124703
191273.0461379924,43780.307367435846,25.339969514937273,39567.950289226275,18737.465759714567,2696226153.5167117,2276709686.1077957
193398.30220619234,43749.40116436533,25.363344905882457,39532.37539204554,18740.368142140713,2780279248.511777,2316534905.029514
195523.55827439224,43720.17400876143,25.385147544719004,39498.83612830199,18742.880244666885,2864258994.901315,2356365848.336566
197648.81434259217,43692.49497695981,25.40552634617441,39467.16491412671,18745.05297279215,2948169530.848793,2396201744.9805593
199774.07041079208,43666.24612736578,25.42461243818848,39437.21178989754,18746.92980448942,3032014658.3581047,2436041923.494877
201899.326478992,43641.32097153435,25.442521688808082,39408.842202243206,18748.548008290632,3115797878.187523,2475885797.634777
204024.5825471919,43617.62314941601,25.45935682153284,39381.93510635257,18749.939639463017,3199522420.420205,2515732854.343991
206149.8386153918,43595.06527899544,25.47520919403731,39356.38133708331,18751.132358605813,3283191271.311985,2555582643.629079
208275.09468359174,43573.56795511447,25.490160300226695,39332.08220636901,18752.15010739861,3366807196.938257,2595434770.005484
210400.35075179164,43553.05887613771,25.50428304384938,39308.948291752786,18753.01366886462,3450372764.080032,2635288885.244168
212525.60681999158,43533.47208038223,25.517642822643843,39286.89838685374,18753.74113382309,3533890358.721466,2675144682.1990647
214650.86288819148,43514.74727698258,25.530298454673776,39265.85858946044,18754.34829078737,3617362202.474861,2715001889.536383
216776.1189563914,43496.8292581752,25.54230297267569,39245.7615069533,18754.84895311581,3700790367.2021275,2754860267.2193255
218901.3750245913,43479.66738193356,25.553704307580603,39226.545562052175,18755.25523451553,3784176788.06242,2794719602.6279473
221026.63109279124,43463.21511552395,25.56454587862427,39208.15438460192,18755.577781863463,3867523275.1826715,2834579707.21491
223151.88716099114,43447.42963193259,25.574867104435818,39190.53627735493,18755.82597261611,3950831524.1200085,2874440413.6149487
225277.14322919108,43432.271452279754,25.584703847042423,39173.643745572546,18756.008082731238,4034103125.261586,2914301573.1397176
227402.39929739098,43417.70412832049,25.594088798731214,39157.43308181691,18756.131429946014,4117339572.2875676,2954163053.601011
229527.6553655909,43403.693959964556,25.603051820077475,39141.86399859749,18756.202496389335,4200542269.8061132,2994024737.4146132
231652.9114337908,43390.20974345401,25.61162023610859,39126.899302618265,18756.227033806717,4283712540.254918,3033886519.9446864
233778.16750199074,43377.22254643675,25.619819096469882,39112.504605279115,18756.210154109514,4366851630.151586,3073748308.0548797
235903.42357019064,43364.70550668436,25.627671404545968,39098.648064848516,18756.156407499326,4449960715.76465,3113610018.837595
238028.67963839055,43352.63365163808,25.63519831973392,39085.30015636927,18756.069850042237,4533040908.26805,3153471578.497169
240153.93570659048,43340.983736338436,25.642419336434443,39072.43346590403,18755.95410225925,4616093258.434129,3193332921.3663626
242279.19177479038,43329.73409761223,25.649352442800215,39060.02250619003,18755.81240004571,4699118760.91355,3233193989.0385804
244404.4478429903,43318.8645226642,25.656014261839264,39048.04355116564,18755.647639023457,4782118358.14474,3273054729.6007957
246529.7039111902,43308.35613045502,25.662420177100195,39036.47448716715,18755.46241325628,4865092943.9304495,3312915096.9542885
248654.95997939014,43298.191264449975,25.66858444485288,39025.294678880586,18755.259049115448,4948043366.714707,3352775050.212132
250780.21604759005,43288.353395497,25.674520294413774,39014.48484837937,18755.03963496247,5030970432.589612,3392634553.1638765
252905.47211578998,43278.82703374395,25.68024001804047,39004.02696578949,18754.806047216076,5113874908.058131,3432493573.7992
255030.72818398988,43269.59764863589,25.68575505162906,38993.90415030572,18754.559973286683,5196757522.576167,3472352083.8833933
257155.9842521898,43260.65159614669,25.691076047285204,38984.10058043914,18754.30293179124,5279618970.894618,3512210058.5784936
259281.2403203897,43251.9760524981,25.696212938700725,38974.60141251167,18754.036290401935,5362459915.2199545,3552067476.104691
261406.49638858964,43243.55895370596,25.70117500014789,38965.39270653118,18753.76128163226,5445280987.209845,3591924317.43733
263531.75245678955,43235.388940367724,25.70597089980158,38956.4613586823,18753.47901682149,5528082789.818651,3631780566.035414
265657.0085249895,43227.45530717213,25.71060874801084,38947.79503975721,18753.190498542568,5610865899.006115,3671636207.598049
267782.2645931894,43219.74795666886,25.715096141065416,38939.38213892793,18752.896631627944,5693630865.321153,3711491229.8456874
269907.5206613893,43212.25735688696,25.719440200936866,38931.211712329336,18752.59823298154,5776378215.371539,3751345622.323435
272032.7767295892,43204.97450243515,25.723647611416755,38923.27343598119,18752.296040322974,5859108453.18916,3791199376.2240047
274158.03279778914,43197.89087875652,25.727724651024797,38915.55756262957,18751.99071999079,5941822061.499587,3831052484.22819
276283.288865989,43190.99842924449,25.731677223016625,38908.05488213349,18751.682873915313,6024519502.903884,3870904940.360983
278408.54493418895,43184.28952495748,25.735510882783245,38900.75668506266,18751.37304585734,6107201220.979806,3910756739.861688
280533.8010023889,43177.75693669697,25.739230862901103,38893.654729207854,18751.061726996977,6189867641.308879,3950607879.0665603
282659.0570705888,43171.39380923731,25.742842096063175,38886.74120873626,18750.749360946258,6272519172.435248,3990458355.302671
284784.3131387887,43165.1936375171,25.746349236095945,38880.008725752166,18750.436348250194,6355156206.761652,4030308166.7918534
286909.5692069886,43159.15024462075,25.749756677244953,38873.45026404745,18750.123050432947,6437779121.387389,4070157312.563701
289034.82527518854,43153.25776139574,25.75306857189221,38867.059164848295,18749.809793639077,6520388278.892721,4110005792.376709
291160.0813433885,43147.51060756594,25.756288846851312,38860.82910438363,18749.496871913805,6602984028.073748,4149853606.6467524
293285.33741158835,43141.90347421506,25.759421218370914,38854.75407311815,18749.18455016105,6685566704.631464,4189700756.3821697
295410.5934797883,43136.4313075258,25.762469205963885,38848.82835650782,18748.873066813536,6768136631.818367,4229547243.1248126
297535.8495479882,43131.08929367144,25.76543614516732,38843.04651714961,18748.562636245224,6850694121.045714,4269393068.8964806
299661.10561618814,43125.8728447658,25.768325199328093,38837.40337820923,18748.25345095299,6933239472.454255,4309238236.150226
301786.361684388,43120.777585786556,25.771139370499313,38831.8940080217,18747.94568353132,7015772975.451049,4349082747.726057
303911.61775258795,43115.79934239409,25.77388150952439,38826.51370576919,18747.639488461165,7098294909.214744,4388926606.810641
306036.8738207879,43110.934129575566,25.776554325378296,38821.25798814942,18747.335003731816,7180805543.171515,4428769816.900611
308162.12988898775,43106.178141049684,25.779160393828686,38816.122576955786,18747.032352312537,7263305137.443682,4468612381.769156
310287.3859571877,43101.52773937375,25.781702165473618,38811.103387497475,18746.73164348887,7345793943.272849,4508454305.435595
312412.6420253876,43096.979446699144,25.784181973207485,38806.19651779401,18746.432974076986,7428272203.419308,4548295592.137636
314537.89809358754,43092.52993612656,25.78660203916168,38801.39823848476,18746.13642952795,7510740152.539248,4588136246.306114
316663.1541617874,43088.17602361596,25.788964481162456,38796.70498339882,18745.842084932596,7593198017.541269,4627976272.541951
318788.41022998735,43083.91466041047,25.79127131874461,38792.11334073544,18745.550005936548,7675646017.923509,4667815675.595156
320913.6662981873,43079.74292593645,25.793524478755884,38787.6200448096,18745.26024957392,7758084366.092663,4707654460.3456745
323038.9223663872,43075.65802114527,25.795725800584254,38783.22196832082,18744.972865027416,7840513267.666038,4747492631.785942
325164.1784345871,43071.65726226521,25.797877041037115,38778.9161151071,18744.687894321687,7922932921.7577,4787330195.004959
327289.434502787,43067.73807493432,25.799979878899066,38774.699613348894,18744.40537295618,8005343521.249732,4827167155.173784
