t,V,theta,vX,vY,X,Y
150714.91999999998,40000.0,9.5,39451.424061489255,6601.9042344271065,-15071492000.0,0.0
150966.11153333331,40001.39094943432,9.499667723967395,39452.834222051206,6601.905008164757,-14972391603.55847,16583424.47565571
151217.30306666667,40002.80069043371,9.499333260115282,39454.263169926526,6601.907360509,-14873287641.548342,33166852.83843836
151468.4946,40004.22960172147,9.498996610627119,39455.71127844849,6601.91135497598,-14774180066.314655,49750289.131873205
151719.68613333334,40005.6780721337,9.4986577790038,39457.17893077474,6601.917057645083,-14675068829.252527,66333737.56218157
151970.87766666667,40007.146500954404,9.498316770150785,39458.6665202078,6601.924537273969,-14575953880.782076,82917202.50486034
152222.0692,40008.63529826378,9.497973590470494,39460.17445052805,6601.9338654194235,-14476835170.322535,99500688.51155767
152473.26073333333,40010.144885300324,9.49762824796031,39461.703136339616,6601.945116564344,-14377712646.265497,116084200.31725964
152724.45226666666,40011.67569483737,9.497280752316499,39463.25300342988,6601.958368251208,-14278586255.947294,132667742.84780386
152975.6438,40013.22817157475,9.496931115044486,39464.82448914313,6601.973701222408,-14179455945.62044,149251321.22773668
153226.83533333332,40014.80277254627,9.49657934957585,39466.41804276904,6601.991199567828,-14080321660.42412,165834940.7885318
153478.02686666665,40016.39996754365,9.496225471392487,39468.034125946615,6602.010950880103,-13981183344.353691,182418607.07718897
153729.21839999998,40018.020239557925,9.49586949815838,39469.6732130844,6602.033046417993,-13882040940.229143,199002325.86523244
153980.4099333333,40019.66408523884,9.495511449859501,39471.33579179757,6602.057581278345,-13782894389.662487,215586103.15813047
154231.60146666667,40021.33201537328,9.495151348952325,39473.02236336279,6602.084654577168,-13683743633.024014,232169945.20515776
154482.793,40023.02455538366,9.494789220521572,39474.73344319163,6602.114369640341,-13584588609.407406,248753858.50972465
154733.98453333334,40024.742245847025,9.494425092447756,39476.46956132342,6602.146834204539,-13485429256.593616,265337849.84019756
154985.17606666667,40026.485643036125,9.494058995585158,39478.23126293843,6602.182160628994,-13386265511.013496,281921926.24123764
155236.3676,40028.25531948332,9.49369096395096,39480.01910889239,6602.220466118732,-13287097307.709106,298506095.04568505
155487.55913333333,40030.05186456857,9.49332103492627,39481.8336762733,6602.261872959995,-13187924580.293655,315090363.88701916
155738.75066666666,40031.87588513252,9.492949249469795,39483.67555898167,6602.306508768601,-13088747260.910011,331674740.7124256
155989.9422,40033.72800611614,9.492575652345067,39485.54536833522,6602.354506752008,-12989565280.187725,348259233.79650384
156241.13373333332,40035.608871228025,9.492200292362103,39487.44373369936,6602.406005985971,-12890378567.19851,364843851.75565124
156492.32526666665,40037.51914364091,9.49182322263447,39489.37130314455,6602.461151706671,-12791187049.410091,381428603.56316036
156743.51679999998,40039.459506718646,9.491444500852829,39491.32874413199,6602.520095619304,-12691990652.638386,398013498.5650705
156994.7083333333,40041.43066477545,9.4910641895761,39493.316744228905,6602.58299622416,-12592789300.997906,414598546.4968155
157245.89986666667,40043.43334386877,9.490682356541399,39495.336011855,6602.650019161313,-12493582916.850348,431183757.5007133
157497.0914,40045.468292627746,9.49029907499412,39497.38727706156,6602.721337575108,-12394371420.751244,447769142.14434534
157748.28293333334,40047.53628311888,9.48991442403953,39499.471292344875,6602.797132499718,-12295154731.394636,464354711.43987745
157999.47446666667,40049.638111750945,9.489528489017385,39501.5888334956,6602.877593267142,-12195932765.555643,480940476.8643761
158250.666,40051.77460022112,9.48914136190119,39503.74070048606,6602.962917939112,-12096705438.030863,497526450.3811791
158501.85753333333,40053.94659650454,9.48875314172386,39505.927718397164,6603.053313764467,-11997472661.576492,514112644.4623814
158753.04906666666,40056.15497588947,9.488363935031652,39508.15073838723,6603.148997663695,-11898234346.84406,530699072.11250395
159004.2406,40058.40064206059,9.487973856368393,39510.41063870459,6603.250196742444,-11798990402.313692,547285746.8934135
159255.43213333332,40060.684528232814,9.487583028792196,39512.708325746404,6603.357148835946,-11699740734.224745,563872682.9505713
159506.62366666665,40063.00759833849,9.487191584427014,39515.04473516601,6603.47010308644,-11600485246.503752,580459895.040688
159757.81519999998,40065.37084827068,9.486799665051576,39517.420833031334,6603.589320555845,-11501223840.689512,597047398.5608734
160009.0067333333,40067.77530718566,9.486407422728437,39519.83761703698,6603.715074876085,-11401956415.855196,613635209.5793691
160260.19826666667,40070.22203886775,9.486015020476117,39522.296117772894,6603.847652939672,-11302682868.527353,630223344.8679649
160511.3898,40072.71214315998,9.48562263298752,39524.79740005249,6603.987355633332,-11203403092.601648,646811821.936202
160762.58133333334,40075.24675746396,9.485230447398097,39527.34256430342,6604.134498617693,-11104116979.255184,663400659.0674745
161013.77286666667,40077.82705831309,9.484838664107473,39529.93274802431,6604.289413156268,-11004824416.855263,679989875.3571489
161264.9644,40080.45426302284,9.484447497658627,39532.56912731093,6604.452446997238,-10905525290.864388,696579490.7528309
161516.15593333333,40083.12963142253,9.484057177678924,39535.252918455604,6604.623965311792,-10806219483.741358,713169526.0969152
161767.34746666666,40085.854467673205,9.48366794988784,39537.98537962363,6604.8043516930975,-10706906874.838228,729760003.1715659
162018.539,40088.6301221762,9.483280077176437,39540.76781261103,6604.994009220303,-10607587340.292986,746350944.7462845
162269.73053333332,40091.45799357778,9.482893840764179,39543.60156468792,6605.1933615922935,-10508260752.917688,762942374.6282364
162520.92206666665,40094.33953087507,9.482509541439155,39546.48803053208,6605.402854336339,-10408926982.08186,779534317.7155149
162772.11359999998,40097.27623562914,9.482127500888216,39549.42865425785,6605.622956097179,-10309585893.590935,796126800.0535389
163023.30513333334,40100.269664291256,9.481748063124172,39552.424931545254,6605.854160012526,-10210237349.559454,812719848.8947934
163274.49666666667,40103.32143064883,9.481371596017752,39555.478411875054,6606.096985181493,-10110881208.278805,829313492.7621375
163525.6882,40106.433208398004,9.480998492942748,39558.59070087543,6606.351978232953,-10011517324.079205,845907761.5159224
163776.87973333334,40109.60673385003,9.48062917454345,39561.76346278641,6606.6197150014605,-9912145547.185633,862502686.4251782
164028.07126666667,40112.843808779246,9.480264090634291,39564.99842304857,6606.900802318979,-9812765723.567444,879098300.2431513
164279.2628,40116.14630342092,9.47990372224256,39568.2973710228,6607.195879931371,-9713377694.781301,895694637.2874929
164530.45433333333,40119.51615962766,9.479548583805894,39571.66216284834,6607.505622549359,-9613981297.807114,912291733.5254241
164781.64586666666,40122.95539419348,9.479199225537423,39575.094724446724,6607.830742044516,-9514576364.876612,928889626.6642288
165032.8374,40126.466102355684,9.478856235972508,39578.59705467969,6608.1719898017345,-9415162723.2942,945488356.2474502
165284.02893333332,40130.05046148462,9.47852024471236,39582.17122866947,6608.530159240638,-9315740195.24967,962087963.7572025
165535.22046666665,40133.71073497253,9.478191925381166,39585.8194012904,6608.906088519476,-9216308597.62236,978688492.723035
165786.41199999998,40137.44927633322,9.477871998814894,39589.5438108413,6609.300663436253,-9116867741.776339,995289988.8378267
166037.60353333334,40141.26853352483,9.47756123650163,39593.346782908404,6609.714820543123,-9017417433.346111,1011892500.0812263
166288.79506666667,40145.17105350902,9.47726046429518,39597.23073442933,6610.149550491551,-8917957472.012394,1028496076.8511925
166539.9866,40149.15948706022,9.476970566425646,39601.198177968916,6610.605901627279,-8818487651.267408,1045100772.1042387
166791.17813333333,40153.23659383995,9.476692489832963,39605.25172621837,6611.0849838558825,-8719007758.16917,1061706641.5050353
167042.36966666667,40157.4052477515,9.476427248851861,39609.394096729695,6611.587972801577,-8619517573.08418,1078313743.5860734
167293.5612,40161.66844259158,9.476175930279366,39613.628116897875,6612.116114284031,-8520016869.417934,1094922139.9181602
167544.75273333333,40166.02929801617,9.475939698859055,39617.95672920382,6612.670729140191,-8420505413.332581,1111531895.2925742
167795.94426666666,40170.491065838854,9.475719803219475,39622.382996731634,6613.253218420667,-8320982963.451088,1128143077.9157836
168047.1358,40175.05713668086,9.475517582307823,39626.91010897426,6613.865068992948,-8221449270.547189,1144755759.617708
168298.32733333332,40179.731046992965,9.475334472364018,39631.54138794194,6614.507859586767,-8121904077.220379,1161370016.0745857
168549.51886666665,40184.516486470515,9.47517201448471,39636.28029458853,6615.183267320243,-8022347117.555176,1177985927.0476074
168800.71039999998,40189.4173058836,9.475031862831644,39641.13043557087,6615.893074749116,-7922778116.763829,1194603576.638569
169051.90193333334,40194.43752534565,9.474915793544273,39646.09557035699,6616.639177485393,-7823196790.811622,1211223053.5639195
169303.09346666667,40199.58134304434,9.474825714422423,39651.179618698705,6617.423592436186,-7723602846.023871,1227844451.4486883
169554.285,40204.853144459914,9.474763675451463,39656.38666848466,6618.248466718376,-7623995978.673695,1244467869.141924
169805.47653333333,40210.25751209665,9.474731880249722,39661.72098398955,6619.116087310137,-7524375874.549547,1261093411.0554078
170056.66806666667,40215.79923575393,9.474732698525958,39667.18701453494,6620.028891506245,-7424742208.501551,1277721187.5275793
170307.8596,40221.483323363966,9.474768679643649,39672.7894035766,6620.989478250629,-7325094643.965525,1294351315.2147763
170559.05113333333,40227.315012423605,9.4748425673987,39678.53299823254,6622.000620426777,-7225432832.463654,1310983917.512092
170810.24266666666,40233.29978204789,9.474957316128101,39684.422859264436,6623.06527819448,-7125756413.080658,1327619125.006362
171061.4342,40239.4433656726,9.475116108279142,39690.46427152366,6624.186613470104,-7026065011.914312,1344257075.9640207
171312.62573333332,40245.75176443268,9.475322373582092,39696.662754870864,6625.36800565707,-6926358241.499139,1360897916.8568358
171563.81726666665,40252.23126124232,9.475579809984007,39703.024075575,6626.61306874373,-6826635700.202067,1377541802.928793
171815.00879999998,40258.88843560077,9.475892406517595,39709.554258194155,6627.925669897314,-6726896971.5888605,1394188898.8077247
172066.20033333334,40265.730179145474,9.476264468297002,39716.259597935685,6629.309949695228,-6627141623.760088,1410839379.1656103
172317.39186666667,40272.76371197081,9.476700643852153,39723.146673487354,6630.77034414881,-6527369208.6554575,1427493429.431842
172568.5834,40279.99659972627,9.477205955035139,39730.22236030398,6632.3116086897535,-6427579261.325325,1444151246.564169
172819.77493333333,40287.436771501845,9.477785829756067,39737.49384432501,6633.9388443059115,-6327771299.168277,1460813039.882467
173070.96646666666,40295.09253850109,9.4784461378321,39744.968636087666,6635.657526031169,-6227944821.133727,1477479031.9709842
173322.158,40302.97261349236,9.479193230262382,39752.654585186945,6637.4735340136085,-6128099306.888595,1494149459.6552398
173573.34953333333,40311.08613101703,9.48003398227302,39760.559895017606,6639.393187407343,-6028234215.947257,1510824575.0603502
173824.54106666666,40319.4426683181,9.480975840510817,39768.69313771386,6641.423281356245,-5928348986.764168,1527504646.7581947
174075.7326,40328.05226693447,9.482026874801836,39777.063269179096,6643.571127362303,-5828443035.788754,1544189961.0115416
174326.92413333332,40336.92545488272,9.483195834931488,39785.67964406966,6645.844597357557,-5728515756.482526,1560880823.1240184
174578.11566666665,40346.07326932072,9.484492212946527,39794.5520305632,6648.252171826334,-5628566518.298701,1577577558.9056473
174829.30719999998,40355.5072795531,9.485926311526114,39803.69062470165,6650.802992353708,-5528594665.62512,1594280516.2645729
175080.49873333334,40365.23961019739,9.487509319018873,39813.106064051084,6653.506919006501,-5428599516.6918125,1610990066.9365923
175331.69026666667,40375.28296427932,9.489253391795351,39822.80944036342,6656.374592984246,-5328580362.445288,1627706608.3651564
175582.8818,40385.65064596582,9.491171744619775,39832.81231085726,6659.4175050088,-5228536465.392492,1644430565.7456474
175834.07333333333,40396.35658257161,9.493278749800906,39843.12670765488,6662.648069951951,-5128467058.418426,1661162394.2489567
176085.26486666666,40407.415345388355,9.49559004593795,39853.7651448174,6666.0797082291365,-5028371343.582689,1677902581.4406796
176336.4564,40418.84216878176,9.498122657132143,39864.74062230838,6669.726934512893,-4928248490.90176,1694651649.9136026
176587.64793333333,40430.652966878064,9.500895123585583,39876.066626084525,6673.605454339775,-4828097637.125624,1711410160.152578
176838.83946666666,40442.86434701473,9.503927644553283,39887.75712335761,6677.732269196579,-4727917884.519594,1728178713.6523488
177090.031,40455.49361895611,9.507242234648,39899.82655189155,6682.125790672352,-4627708299.664748,1744957956.3103576
177341.22253333332,40468.558798669306,9.510862894514968,39912.28980198783,6686.8059642473345,-4527467912.29352,1761748582.1180527
177592.41406666665,40482.07860521443,9.51481579688841,39925.1621895685,6691.794403253113,-4427195714.1806345,1778551337.175593
177843.60559999998,40496.072449020416,9.519129489004598,39938.4594184836,6697.114533472521,-4326890658.113926,1795367024.056144
178094.79713333334,40510.560409488404,9.523835112266113,39952.19752984528,6702.7917487442455,-4226551656.974635,1812196506.5470312
178345.98866666667,40525.56319948263,9.528966639914234,39966.392835820334,6708.853577784352,-4126177582.9627647,1829040714.7957656
178597.1802,40541.10211382908,9.534561133253424,39981.06183489227,6715.329862221007,-4025767267.0099936,1845900650.8892806
178848.37173333333,40557.19895843952,9.54065901666079,39996.22110513184,6722.2529455424365,-3925319498.4307365,1862777394.8943741
179099.56326666666,40573.875956108874,9.54730437117708,40011.88717148979,6729.657872260701,-3824833024.871252,1879672111.386187
179350.7548,40591.15562439617,9.55454524588027,40028.07634255088,6737.582596070164,-3724306552.6274,1896586056.4892123
179601.94633333333,40609.06062029401,9.56243398544792,40044.80451156898,6746.068195099899,-3623738747.413871,1913520585.451524
179853.13786666666,40627.61354562639,9.571027571272154,40062.086915953805,6755.159091489067,-3523128235.681508,1930477160.7671797
180104.3294,40646.836706302325,9.580387972145923,40079.937848719484,6764.90327141408,-3422473606.594836,1947457360.8535588
180355.52093333332,40666.751817718345,9.590582498827315,40098.370314768115,6775.352500322135,-3321773414.799017,1964462889.2791433
180606.71246666665,40687.37964778312,9.60168415464072,40117.39562431346,6786.562526430526,-3221026184.124148,1981495584.5221536
180857.90399999998,40708.7395882904,9.613771971615353,40137.022915319794,6798.593263487376,-3120230412.3947916,1998557430.2206757
181109.09553333334,40730.84914477175,9.626931318419599,40157.25859662946,6811.508941312742,-3019384577.533461,2015650565.849455
181360.28706666667,40753.72333463006,9.64125416245891,40178.105703603214,6825.378209715411,-2918487145.167781,2032777297.726317
181611.4786,40777.37398343788,9.656839263919716,40199.56315875846,6840.274177995066,-2817536577.9711246,2049940110.2110217
181862.67013333333,40801.808909973384,9.673792274252715,40221.62493126138,6856.274368410047,-2716531346.9842067,2067141676.9101367
182113.86166666666,40827.030992104825,9.692225705647012,40244.27909145395,6873.460557786757,-2615469945.1782894,2084384871.6421208
182365.0532,40853.03710831449,9.712258731592376,40267.50676016021,6891.918477011506,-2514350903.5266685,2101672778.8464694
182616.24473333333,40879.816953818045,9.734016771931445,40291.28095763701,6911.737333726319,-2413172809.8463893,2119008703.0390975
182867.43626666666,40907.35173625791,9.757630809312502,40315.56536404309,6933.009119530435,-2311934330.6524086,2136396176.8235884
183118.6278,40935.61276421041,9.783236378338502,40340.31301250441,6955.827659923289,-2210634236.226505,2153838966.866074
183369.81933333332,40964.55995257817,9.810972164914176,40365.46494747951,6980.287363867952,-2109271429.0372567,2171341077.133559
183621.01086666665,40994.14028255478,9.840978152573145,40390.94889523801,7006.481631179189,-2007844975.549099,2188906748.58682
183872.20239999998,41024.286270232544,9.87339325648475,40416.67800964622,7034.50088112653,-1906354141.3215938,2206540454.4177146
184123.39393333334,41054.914516696466,9.908352396217309,40442.54977448145,7064.430176018763,-1804798429.1194458,2224246889.8381176
184374.58546666667,41085.92443270827,9.945982977115062,40468.44516199222,7096.346430455803,-1703177619.5263608,2242030955.3785233
184625.777,41117.19725125209,9.98640077914421,40494.22816451141,7130.315221563681,-1601491813.2823112,2259897732.656732
184876.96853333333,41148.59545890873,10.029705292576583,40519.7458289776,7166.387248535791,-1499741474.2504914,2277852451.6516147
185128.16006666666,41179.96278904302,10.075974592163837,40544.8289298593,7204.59453095119,-1397927471.5811546,2295900448.685135
185379.3516,41211.124922240204,10.125259904107981,40569.29341034323,7244.946483030043,-1296051119.2979102,2314047114.5971065
185630.54313333333,41241.891028119644,10.177580089481742,40592.942700847874,7287.426051835935,-1194114211.2212744,2332297833.0049405
185881.73466666666,41272.05625375682,10.232916337415222,40615.57098479595,7331.986156033609,-1092119048.907148,2350657909.0773854
186132.9262,41301.40521493075,10.291207422227627,40636.967422677146,7378.546700820265,-990068460.1636797,2369132489.9031973
186384.11773333332,41329.716477163114,10.352345919507483,40656.921268108155,7426.992465429251,-887965805.7687681,2387726478.2683983
186635.30926666665,41356.76792734722,10.416175785005523,40675.22771889392,7477.172153466804,-785814972.2847056,2406444442.4121227
186886.50079999998,41382.34284106191,10.482491666717985,40691.694251109766,7528.898856365948,-683620349.3809388,2425290525.032931
187137.69233333334,41406.23635670627,10.551040238605863,40706.14709757469,7581.952103385757,-581386790.8273568,2444268355.372966
187388.88386666667,41428.26198933192,10.621523714841212,40718.437468266384,7636.081560565225,-479119559.2702988,2463380968.523118
187640.0754,41448.25776881946,10.693605535744757,40728.44708296415,7691.012305327005,-376824255.9755311,2482630736.0901012
187891.26693333333,41466.091580524364,10.766918028718246,40736.09260547091,7746.451458760439,-274506737.80919296,2502019312.000331
188142.45846666666,41481.6653277063,10.841071663868371,40741.32863709722,7802.095823807398,-172173024.70399314,2521547596.486467
188393.65,41494.91762215471,10.915665371144328,40744.14903913786,7857.640074852427,-69829201.60139906,2541215720.264246
188644.84153333333,41505.8248324,10.990297286869989,40744.58649608052,7912.784988945772,32518680.72606486,2561023049.662139
188896.03306666666,41514.40046107957,11.064575267423916,40742.7103836833,7967.245209869499,134864701.53826278,2580968212.150451
189147.2246,41520.692964401875,11.138126549808632,40738.62314739217,8020.7560927193035,237203158.59473142,2601049140.4763346
189398.41613333332,41524.7822479956,11.210606044184507,40732.455507931736,8073.079278553656,339528645.8239081,2621263132.578908
189649.60766666665,41526.77516009238,11.281702893629332,40724.36087958066,8124.006779080499,441836117.7041145,2641606923.730364
189900.79919999998,41526.80034732715,11.35114510760408,40714.509408061625,8173.363490487395,544120938.8911458,2662076766.971861
