t,V,theta,vX,vY,X,Y
602859.6799999999,40000.0,12.5,39051.840284797334,8657.584557524115,-15071492000.0,0.0
603110.8715333333,40001.37675751724,12.49956359616671,39053.25035088472,8657.585086383073,-14973395324.174093,21747119.399674706
603362.0630666666,40002.77190606811,12.499122966425613,39054.67901294809,8657.586694021838,-14875295083.254213,43494241.45624726
603613.2546,40004.1858148044,12.498678057679724,39056.12663950577,8657.58942340678,-14777191230.072021,65241368.9324269
603864.4461333333,40005.61886277009,12.498228816255322,39057.59360882466,8657.593319227057,-14679083716.521448,86988504.70096724
604115.6376666666,40007.071439233,12.497775187911149,39059.08030924274,8657.598427971738,-14580972493.533806,108735651.74908824
604366.8292,40008.54394402976,12.497317117849116,39060.58713950445,8657.604798010832,-14482857511.05208,130482813.18309677
604618.0207333333,40010.03678792486,12.496854550726681,39062.114509109495,8657.612479680432,-14384738718.004358,152229992.23321554
604869.2122666667,40011.55039298417,12.496387430671042,39063.662838675584,8657.621525372215,-14286616062.27637,173977192.25863138
605120.4038,40013.08519296397,12.495915701295267,39065.232560315955,8657.63198962756,-14188489490.68309,195724416.7527739
605371.5953333334,40014.64163371591,12.495439305716534,39066.82411803223,8657.64392923654,-14090358948.939388,217471669.34883663
605622.7868666666,40016.220173608934,12.49495818657668,39068.43796812336,8657.657403342071,-13992224381.629648,239218953.8255529
605873.9784,40017.821283968755,12.494472286065195,39070.07457961151,8657.672473549532,-13894085732.176365,260966274.1132402
606125.1699333333,40019.44544953591,12.493981545944907,39071.734434685546,8657.689204042159,-13795942942.80764,282713634.3001269
606376.3614666667,40021.09316894326,12.493485907580574,39073.418029163164,8657.707661702587,-13697795954.523535,304461038.63897616
606627.553,40022.76495521384,12.49298531197056,39075.12587297239,8657.727916240874,-13599644707.061245,326208491.55402327
606878.7445333333,40024.46133628016,12.492479699781958,39076.85849065353,8657.750040329425,-13501489138.859037,347955997.64824307
607129.9360666666,40026.18285552595,12.491969011389314,39078.61642188251,8657.774109745213,-13403329187.018906,369703561.71096474
607381.1276,40027.930072351584,12.49145318691733,39080.40022201669,8657.800203519755,-13305164787.26788,391451188.72585374
607632.3191333333,40029.703562764254,12.49093216628786,39082.2104626643,8657.828404097329,-13206995873.91793,413198883.8792802
607883.5106666667,40031.50391999428,12.49040588927148,39084.04773227865,8657.858797501905,-13108822379.824425,434946652.5690957
608134.7021999999,40033.33175513881,12.489874295544107,39085.912636778354,8657.891473513382,-13010644236.343044,456694500.4138401
608385.8937333333,40035.18769783449,12.489337324748963,39087.80580019499,8657.926525853665,-12912461373.285122,478442433.262404
608637.0852666666,40037.0723969603,12.488794916564434,39089.72786534948,8657.964052383251,-12814273718.871313,500190457.2041705
608888.2768,40038.98652137257,12.488247010778185,39091.67949455878,8658.004155308954,-12716081199.683525,521938578.57966465
609139.4683333333,40040.93076067351,12.48769354736815,39093.6613703744,8658.0469414035,-12617883740.615046,543686803.991739
609390.6598666667,40042.9058260152,12.487134466590858,39095.67419635442,8658.092522237757,-12519681264.818758,565435140.317327
609641.8513999999,40044.91245094102,12.486569709077775,39097.71869787083,8658.141014426421,-12421473693.65339,587183594.7197945
609893.0429333333,40046.95139226636,12.485999215940247,39099.79562295399,8658.192539888018,-12323260946.627687,608932174.661927
610144.2344666666,40049.02343100094,12.485422928883796,39101.90574317631,8658.247226120202,-12225042941.342396,630680887.9195886
610395.426,40051.12937331486,12.484840790332537,39104.049854577075,8658.305206491335,-12126819593.43001,652429742.5960914
610646.6175333334,40053.270051550906,12.484252743564484,39106.2287786309,8658.366620549445,-12028590816.49211,674178747.1373194
610897.8090666666,40055.446325285666,12.48365873285874,39108.44336326198,8658.431614349729,-11930356522.03424,695927910.3476506
611149.0006,40057.65908244215,12.483058703655455,39110.69448390675,8658.500340801877,-11832116619.398157,717677241.4067258
611400.1921333333,40059.90924045694,12.482452602729701,39112.983044627734,8658.572960038538,-11733871015.691359,739426749.8871149
611651.3836666667,40062.19774750475,12.481840378380332,39115.30997928119,8658.649639806425,-11635619615.713743,761176445.7729381
611902.5752,40064.52558378401,12.481221980635162,39117.676252741876,8658.730555881586,-11537362321.881273,782926339.4794967
612153.7667333334,40066.89376286665,12.480597361473757,39120.08286218793,8658.815892510569,-11439099034.14648,804676441.8739797
612404.9582666666,40069.30333311618,12.47996647506939,39122.53083844943,8658.905842879283,-11340829649.915674,826426764.2973119
612656.1498,40071.75537917768,12.479329278051697,39125.021247424294,8659.000609611527,-11242554063.962667,848177318.5872158
612907.3413333333,40074.25102354438,12.478685729791868,39127.55519156535,8659.100405299312,-11144272168.33888,869928117.1025637
613158.5328666667,40076.79142820499,12.478035792712234,39130.13381144275,8659.205453067269,-11045983852.27959,891679172.7491043
613409.7244,40079.377796376975,12.477379432622346,39132.75828738622,8659.315987173615,-10947689002.106184,913430499.0066503
613660.9159333333,40082.01137433064,12.476716619083861,39135.42984121179,8659.432253650373,-10849387501.124165,935182109.957824
613912.1074666666,40084.693453309905,12.476047325806649,39138.14973803811,8659.554510985721,-10751079229.516722,956934020.3184614
614163.299,40087.42537155539,12.475371531078894,39140.919288197656,8659.683030851635,-10652764064.233616,978686245.4697857
614414.4905333333,40090.208516436425,12.474689218234099,39143.739849248675,8659.818098880201,-10554441878.875149,1000438801.4924668
614665.6820666667,40093.04432669854,12.474000376158282,39146.61282809393,8659.960015492314,-10456112543.570938,1022191705.2026951
614916.8735999999,40095.93429483388,12.473304999840837,39149.53968321284,8660.109096782724,-10357775924.853245,1043944974.1904043
615168.0651333333,40098.87996958227,12.47260309097298,39152.52192701404,8660.265675465807,-10259431885.52453,1065698626.8597912
615419.2566666666,40101.882958571245,12.471894658597991,39155.561128315865,8660.430101886752,-10161080284.518972,1087452682.47229
615670.4482,40104.94493110406,12.471179719817886,39158.65891496284,8660.602745103293,-10062720976.757557,1109207161.1921728
615921.6397333333,40108.0676211053,12.470458300561623,39161.8169765867,8660.783994043568,-9964353812.996443,1130962084.1349573
616172.8312666666,40111.25283023427,12.469730436420381,39165.03706752125,8660.974258746155,-9865978639.668194,1152717473.4188244
616424.0228,40114.50243117747,12.468996173556075,39168.32100988095,8661.173971688908,-9767595298.715494,1174473352.2192566
616675.2143333333,40117.81837113182,12.468255569689795,39171.67069681379,8661.383589213783,-9669203627.41691,1196229744.82713
616926.4058666667,40121.20267549167,12.467508695177536,39175.08809593985,8661.603593055515,-9570803458.204271,1217986676.7105122
617177.5974,40124.65745175318,12.46675563418137,39178.57525298783,8661.83449198271,-9472394618.471159,1239744174.5804327
617428.7889333334,40128.18489365095,12.465996485944972,39182.13429564255,8662.076823560732,-9373976930.372004,1261502266.460926
617679.9804666666,40131.787285542974,12.46523136618332,39185.767437617615,8662.331156046603,-9275550210.611258,1283260981.7636597
617931.172,40135.46700706098,12.4644604085974,39189.47698296838,8662.59809042714,-9177114270.222033,1305020351.367495
618182.3635333333,40139.22653804473,12.46368376652591,39193.26533066145,8662.878262612569,-9078668914.333593,1326780407.7033556
618433.5550666667,40143.06846378041,12.462901614747038,39197.13497941837,8663.17234579907,-8980213941.927052,1348541184.844808
618684.7466,40146.995480564496,12.462114151444975,39201.0885328522,8663.48105301499,-8881749145.57852,1370302718.6047995
618935.9381333333,40151.01040161665,12.461321600357197,39205.128704917486,8663.805139866881,-8783274311.188995,1392065046.6390305
619187.1296666666,40155.116163366656,12.460524213120276,39209.25832569537,8664.145407503158,-8684789217.700142,1413828208.556487
619438.3212,40159.315832142674,12.459722271833954,39213.48034753753,8664.50270581488,-8586293636.795111,1435592246.037704
619689.5127333333,40163.61261129042,12.458916091865268,39217.79785159429,8664.877936895182,-8487787332.583452,1457357202.9613762
619940.7042666667,40168.0098487549,12.4581060249169,39222.214054754484,8665.272058780993,-8389270061.269137,1479123125.5400014
620191.8957999999,40172.511045159496,12.457292462386599,39226.73231702652,8665.686089503166,-8290741570.8006115,1500890062.46529
620443.0873333333,40177.11986241956,12.456475839047425,39231.356149392755,8666.121111473787,-8192201600.501734,1522658065.0641541
620694.2788666666,40181.84013293126,12.455656637081992,39236.08922217156,8666.578276242459,-8093649880.68237,1544427187.4661593
620945.4704,40186.675869379476,12.454835390507496,39240.9353739245,8667.058809656693,-7995086132.22732,1566197486.7834082
621196.6619333333,40191.63127521262,12.454012690032604,39245.898620948785,8667.564017465307,-7896510066.162164,1587969023.3039162
621447.8534666667,40196.710755836,12.453189188391848,39250.983167398685,8668.095291407835,-7797921383.194506,1609741860.699647
621699.0449999999,40201.918930580105,12.452365606208614,39256.19341608283,8668.654115837711,-7699319773.228969,1631516066.25048
621950.2365333333,40207.26064550488,12.45154273844361,39261.5339799885,8669.242074932154,-7600704914.854191,1653291711.0855188
622201.4280666667,40212.74098710635,12.450721461492499,39267.00969458775,8669.860860547551,-7502076474.799928,1675068870.4432812
622452.6196,40218.365296998025,12.449902741003887,39272.62563098524,8670.512280785737,-7403434107.362224,1696847623.9524708
622703.8111333334,40224.13918764551,12.449087640497426,39278.387109971896,8671.198269343917,-7304777453.794464,1718628055.9352026
622955.0026666666,40230.06855923997,12.448277330871408,39284.29971705442,8671.92089572928,-7206106141.6619425,1740410255.734748
623206.1942,40236.159617803496,12.447473100900202,39290.36931853585,8672.68237642872,-7107419784.157402,1762194318.070075
623457.3857333333,40242.41889462796,12.446676368834158,39296.602078728945,8673.485087134553,-7008717979.374824,1783980343.4197102
623708.5772666667,40248.853267157625,12.445888695228716,39303.00447839049,8674.331576139013,-6910000309.538487,1805768438.4376976
623959.7688,40255.46998143599,12.445111797145353,39309.58333447198,8675.224579023694,-6811266340.184148,1827558716.4047523
624210.9603333334,40262.27667624794,12.444347563885067,39316.3458212897,8676.167034785243,-6712515619.2888775,1849351297.7180173
624462.1518666666,40269.28140910011,12.443598074435696,39323.299493225546,8677.162103555716,-6613747676.3458805,1871146310.4232287
624713.3434,40276.49268419513,12.442865616837855,39330.452309078566,8678.213186095418,-6514962021.380293,1892943890.7934983
624964.5349333333,40283.91948256921,12.4421527097009,39337.812658196824,8679.323945258022,-6416158143.901661,1914744183.959406
625215.7264666667,40291.57129457793,12.441462126131,39345.389388528776,8680.498329652719,-6317335511.788456,1936547344.59562
625466.918,40299.458154931046,12.440796920368047,39353.191836744045,8681.740599756486,-6218493570.099628,1958353537.6698642
625718.1095333333,40307.5906804952,12.440160457468249,39361.22986058431,8683.055356761803,-6119631739.807804,1980162939.2607217
625969.3010666666,40315.98011110226,12.439556446414679,39369.51387361634,8684.44757448183,-6020749416.448309,2001975737.4515283
626220.4926,40324.63835362137,12.43898897709059,39378.05488257082,8685.92263467688,-5921845968.677771,2023792133.3084626
626471.6841333333,40333.57802957505,12.438462561610208,39386.864527462334,8687.486366213683,-5822920736.735566,2045612341.9519124
626722.8756666667,40342.81252660246,12.437982180570819,39395.95512469753,8689.145088523397,-5723973030.80086,2067436593.7312956
626974.0671999999,40352.35605409768,12.437553334869124,39405.339713389454,8690.905659886444,-5625002129.237487,2089265135.5147524
627225.2587333333,40362.2237033766,12.43718210381628,39415.032105106424,8692.775531143412,-5526007276.718316,2111098232.1065402
627476.4502666666,40372.43151275191,12.436875210390863,39425.046937292536,8694.762805512504,-5426987682.2202015,2132936167.8065605
627727.6418,40382.996537923376,12.436640094590373,39435.39973060328,8696.876305287205,-5327942516.879973,2154779248.128267
627978.8333333333,40393.93692811649,12.436484995981427,39446.10695040305,8699.125646294387,-5228870911.701339,2176627801.693269
628230.0248666666,40405.2720084288,12.43641904670995,39457.18607266991,8701.52132111528,-5129771955.101926,2198482182.323307
628481.2164,40417.02236886679,12.436452376418977,39468.65565454521,8704.074792211699,-5030644690.289087,2220342771.352942
628732.4079333333,40429.209960575885,12.436596230736416,39480.535409749544,8706.798596260332,-4931488112.452516,2242209980.1893806
628983.5994666667,40441.85819978066,12.43686310524355,39492.84628905869,8709.706461181664,-4832301165.7611685,2264084253.149325
629234.791,40454.9920799579,12.437266897121813,39505.61056599076,8712.813437560517,-4733082740.151589,2285966070.6067295
629485.9825333334,40468.63829275863,12.437823077006488,39518.85192779324,8716.136046395943,-4633831667.894353,2307855952.4898868
629737.1740666666,40482.82535817183,12.438548883958271,39532.59557173032,8719.692445393275,-4534546719.925282,2329754462.1714525
629988.3656,40497.58376437551,12.43946354690406,39546.86830654968,8723.502616324895,-4435226601.928163,2351662210.8009553
630239.5571333333,40512.9461176424,12.44058853640563,39561.69865884273,8727.588576343287,-4335869950.156209,2373579862.136092
630490.7486666667,40528.9473025465,12.441947851197595,39577.11698379231,8731.974616534897,-4236475326.980443,2395508137.936838
630741.9402,40545.62465253894,12.44356834460367,39593.15557950967,8736.687571460696,-4137041216.1547794,2417447823.9951954
630993.1317333333,40563.018130710036,12.445480096702566,39609.84880377986,8741.757123943129,-4037566017.7899985,2439399776.883428
631244.3232666666,40581.1705202038,12.447716838981083,39627.23319153415,8747.216149932075,-3938048043.0323205,2461364931.5150127
631495.5148,40600.12762327353,12.45031643919,39645.34757072012,8753.101108915323,-3838485508.4472184,2483344309.625419
631746.7063333333,40619.93846732202,12.453321455213944,39664.23317340226,8759.452486029166,-3738876530.115878,2505339029.2944155
631997.8978666667,40640.655515409664,12.456779767980047,39683.93373784973,8766.315292764104,-3639219117.4608626,2527350315.6479416
632249.0893999999,40662.33487757466,12.460745304754973,39704.495595989814,8773.739633933217,-3539511166.8297005,2549379512.8958726
632500.2809333333,40685.036517812754,12.46527886559654,39725.967738847976,8781.781349348608,-3439750454.8811975,2571428097.882244
632751.4724666666,40708.824449610096,12.470449067196784,39748.40185036334,8790.502739388958,-3339934631.8402658,2593497695.3466916
633002.664,40733.76691038757,12.476333419812073,39771.85229714545,8799.973384268338,-3240061214.714352,2615590095.1198034
633253.8555333333,40759.936501943936,12.48301955431662,39796.376058185,8810.271067227226,-3140127580.599729,2637707271.500429
633505.0470666667,40787.41027979321,12.490606617473324,39822.03257408431,8821.482811905764,-3040130960.251043,2659851405.088986
633756.2385999999,40816.26976895276,12.499206854042873,39848.8834898437,8833.7060436031,-2940068432.1450453,2682024907.376354
634007.4301333333,40846.60087699205,12.508947393985215,39876.992258419596,8847.049882657588,-2839936917.342339,2704230448.4111576
634258.6216666667,40878.49366670083,12.519972261224257,39906.423563942415,8861.636575357914,-2739733175.5427675,2726470987.8863792
634509.8132,40912.041940263385,12.532444616510004,39937.2425134433,8877.603063005641,-2639453802.8448157,2748749809.995296
634761.0047333334,40947.34257402051,12.54654923979997,39969.51353404022,8895.102682171148,-2539095231.8616276,2771070562.4008007
635012.1962666666,40984.49452751233,12.56249524590369,40003.29889874814,8914.306977724304,-2438653735.0207567,2793437299.633136
635263.3878,41023.597432419185,12.580519009042014,40038.65678860777,8935.40759346002,-2338125432.086264,2815854531.1675725
635514.5793333333,41064.74964644646,12.600887245071915,40075.6387822722,8958.61818129138,-2237506303.194008,2838327274.320327
635765.7708666667,41108.04563484474,12.623900161423164,40114.28664778898,8984.176236889885,-2136792208.9856293,2860861111.9177017
636016.9624,41153.57251968873,12.649894530714477,40154.62829729212,9012.34472485305,-2035978919.7613883,2883462254.413952
636268.1539333333,41201.4056171514,12.679246470606673,40196.67275734191,9043.413297433763,-1935062155.937092,2906137605.72499
636519.3454666666,41251.60277064876,12.712373615851496,40240.40401139958,9077.698835428104,-1834037642.4650893,2928894831.4689407
636770.537,41304.197290434364,12.749736245923065,40285.773594711005,9115.544947111552,-1732901180.2255664,2951742427.517178
637021.7285333333,41359.18933900236,12.791836783080038,40332.69187716212,9157.31995298554,-1631648737.64959,2974689785.717618
637272.9200666667,41416.53567153772,12.839216906726305,40381.01807119071,9203.412767333946,-1530276565.9038618,2997747252.321465
637524.1116,41476.13777050683,12.892451355509587,40430.54916675229,9254.225976973397,-1428781340.7123213,3020926173.0161414
637775.3031333333,41537.8286243383,12.952137338226878,40481.0082405909,9310.16533956889,-1327160333.1297572,3044238916.5808473
638026.4946666666,41601.35871081895,13.01887839765521,40532.03292388863,9371.624920100014,-1225411610.0956545,3067698867.1608047
638277.6862,41666.38216458825,13.093261640675458,40583.16523685974,9438.967212744046,-1123534263.1443822,3091320373.250943
638528.8777333333,41732.44461952528,13.175827557615719,40633.844478443054,9512.497927644863,-1021528660.0283179,3115118640.1058493
638780.0692666667,41798.9747647122,13.267032305565602,40683.405316948345,9592.435728111293,-919396709.1490161,3139109552.0564485
639031.2607999999,41865.28212360992,13.367203403173429,40731.0835298374,9678.878125839836,-817142120.7726032,3163309412.8847637
639282.4523333333,41930.5637832805,13.476491281820373,40776.031800270575,9771.76595130467,-714770642.6252574,3187734596.803972
639533.6438666666,41993.92254268908,13.594820923686928,40817.34738479747,9870.850165519545,-612290241.7494286,3212401110.338417
639784.8354,42054.39800928739,13.721849560729453,40854.11216061458,9975.665967316612,-509711201.1015254,3237324076.57158
640036.0269333333,42111.01045899135,13.856937586070865,40885.44353937389,10085.519741983991,-407046100.21749353,3262517166.945445
640287.2184666666,42162.814925757506,13.999139825266775,40910.55225862964,10199.493926544248,-304309656.0281504,3287992019.9406314
640538.41,42208.96044707293,14.147222641778367,40928.800694208825,10316.473028913442,-201518413.1903207,3313757697.3180985
640789.6015333333,42248.74736155693,14.29970893032963,40939.75383817625,10435.190908181658,-98690291.95069614,3339820233.5151267
641040.7930666667,42281.67478397655,14.454948418660445,40943.21515539083,10554.295584136955,4155977.6276935074,3366182329.415143
641291.9846,42307.471352296925,14.611205966304874,40939.24146703665,10672.424294840048,107001487.93888776,3392843227.3357787
641543.1761333334,42326.104989642256,14.766757068708806,40928.13448560347,10788.279340218023,209827794.3798639,3419798781.875239
641794.3676666666,42337.77109165094,14.919978600735353,40910.41073275795,10900.695146919652,312617505.09712005,3447041715.925732
642045.5592,42342.862210418614,15.06942427258603,40886.75515393162,11008.688984295222,415354770.40502244,3474562028.4423184
