t,V,theta,vX,vY,X,Y
226072.38,40000.0,10.0,39392.31012048832,6945.9271066772135,-15071492000.0,0.0
226323.57153333334,40001.38885130562,9.999650296223026,39393.72026710337,6945.927839429897,-14972540092.773285,17447580.80347813
226574.76306666667,40002.796437852594,9.99929806004322,39395.149172847,6945.930067125978,-14873584620.048038,34895165.28818166
226825.9546,40004.22313719109,9.998943284241625,39396.59721047005,6945.93384982597,-14774625534.24083,52342757.283227675
227077.14613333333,40005.66933696676,9.99858596259409,39398.06476254717,6945.939250012308,-14675662786.819765,69790360.77157544
227328.33766666666,40007.13543525629,9.998226089945149,39399.55222179839,6945.946332698035,-14576696328.279425,87237979.89624318
227579.5292,40008.62184091621,9.997863662286568,39401.05999142322,6945.955165541002,-14477726108.114958,104685618.9668047
227830.72073333332,40010.128973945604,9.9974986768408,39402.58848544785,6945.965818963853,-14378752074.795338,122133282.46617982
228081.91226666665,40011.657265863396,9.997131132149715,39404.13812908598,6945.978366280156,-14279774175.735718,139580975.05773374
228333.10379999998,40013.207160100836,9.996761028168896,39405.70935911406,6945.992883827015,-14180792357.268867,157028701.5927013
228584.2953333333,40014.77911240988,9.996388366367913,39407.302624261414,6946.009451104551,-14081806564.615648,174476467.11795235
228835.48686666667,40016.37359128833,9.996013149836939,39408.91838561607,6946.028150922628,-13982816741.85449,191924276.88411686
229086.6784,40017.99107842231,9.995635383400092,39410.55711704693,6946.049069555276,-13883822831.889826,209372136.35408744
229337.86993333334,40019.63206914719,9.995255073736034,39412.21930564311,6946.072296903237,-13784824776.41945,226820051.2119201
229589.06146666667,40021.297072927504,9.994872229506194,39413.905452171246,6946.097926665126,-13685822515.900743,244268027.37215367
229840.253,40022.98661385707,9.994486861491215,39415.61607155149,6946.126056517723,-13586815989.515732,261716070.9895701
230091.44453333333,40024.70123118015,9.994098982736125,39417.35169335334,6946.1567883059315,-13487805135.134924,279164188.4694198
230342.63606666666,40026.441479834604,9.993708608704809,39419.11286231193,6946.190228242992,-13388789889.279877,296612386.47813624
230593.8276,40028.20793101831,9.993315757444451,39420.90013886603,6946.226487121571,-13289770187.084446,314060671.95456725
230845.01913333332,40030.001172779805,9.992920449760591,39422.714099718636,6946.2656805363895,-13190745962.254639,331509052.1217499
231096.21066666665,40031.821810634436,9.992522709403476,39424.55533842131,6946.307929119091,-13091717147.027048,348957534.4992601
231347.40219999998,40033.670468207325,9.992122563266586,39426.42446598342,6946.353358786118,-12992683672.125782,366406126.91616815
231598.5937333333,40035.54778790434,9.991720041598057,39428.32211150748,6946.402101000398,-12893645466.717825,383854837.5246329
231849.78526666667,40037.45443161267,9.991315178225951,39430.24892285186,6946.454293047695,-12794602458.36678,401303674.8141718
232100.9768,40039.391081432375,9.990908010798316,39432.20556732233,6946.510078328567,-12695554572.984901,418752647.62664425
232352.16833333333,40041.35844044054,9.990498581039061,39434.19273239368,6946.569606666911,-12596501734.783361,436201765.17198795
232603.35986666667,40043.35723348971,9.990086935020782,39436.21112646313,6946.633034636139,-12497443866.220657,453651037.0447521
232854.5514,40045.388208042285,9.989673123455658,39438.261479636945,6946.700525904148,-12398380887.949095,471100473.2414727
233105.74293333333,40047.45213504293,9.989257202005804,39440.34454455208,6946.772251598269,-12299312718.75924,488550084.1789388
233356.93446666666,40049.549809830736,9.98883923161437,39442.46109723454,6946.8483906915135,-12200239275.522276,505999880.71340114
233608.126,40051.68205309346,9.988419278858911,39444.61193799641,6946.92913041151,-12101160473.130148,523449874.1607788
233859.31753333332,40053.84971186586,9.987997416328621,39446.797892373455,6947.014666673624,-12002076224.433405,540900076.3179225
234110.50906666665,40056.05366057465,9.987573723027166,39449.019812105485,6947.105204539864,-11902986440.176641,558350499.4849968
234361.70059999998,40058.294802132375,9.98714828480297,39451.278576161625,6947.200958705317,-11803891028.93141,575801156.4890494
234612.8921333333,40060.574069083,9.986721194808954,39453.57509181289,6947.302154013947,-11704789897.02651,593252060.7088367
234864.08366666667,40062.89242480198,9.986292553993898,39455.91029575455,6947.409026005756,-11605682948.475523,610703226.1009841
235115.2752,40065.25086475361,9.985862471627783,39458.28515528084,6947.521821497455,-11506570084.90145,628154667.2275611
235366.46673333333,40067.650417809025,9.98543106586363,39460.700669514954,6947.640799198946,-11407451205.458345,645606399.2851588
235617.65826666667,40070.092147628064,9.984998464338528,39463.15787069708,6947.766230368095,-11308326206.749786,663058438.1355613
235868.8498,40072.57715410849,9.984564804816895,39465.65782553375,6947.898399506467,-11209194982.744028,680510800.3381131
236120.04133333333,40075.106574906415,9.984130235879084,39468.2016366117,6948.037605098907,-11110057424.685696,697963503.1838862
236371.23286666666,40077.681587031824,9.983694917658829,39470.79044387983,6948.18416040007,-11010913421.003836,715416564.7317622
236622.4244,40080.30340852354,9.983259022633284,39473.42542620288,6948.338394271241,-10911762857.21616,732870003.8465515
236873.61593333332,40082.97330020796,9.982822736469698,39476.10780299082,6948.500652071063,-10812605615.829298,750323840.2392795
237124.80746666665,40085.692567546525,9.982386258933134,39478.83883590809,6948.671296604078,-10713441576.234856,767778094.5097796
237375.99899999998,40088.46256257679,9.981949804860006,39481.61983066711,6948.850709131279,-10614270614.601072,785232788.1917455
237627.1905333333,40091.2846859527,9.981513605202617,39484.45213891065,6949.039290447246,-10515092603.759876,802687943.8004018
237878.38206666667,40094.16038908966,9.981077908150288,39487.337160188225,6949.237462028773,-10415907413.08908,820143584.8829662
238129.5736,40097.09117642046,9.980642980333256,39490.276344031474,6949.445667260332,-10316714908.389515,837599736.0720909
238380.76513333333,40100.07860776876,9.98020910811589,39493.271192134394,6949.664372742124,-10217514951.756794,855056423.1424824
238631.95666666667,40103.12430084675,9.979776598986545,39496.32326064409,6949.894069686986,-10118307401.447487,872513673.0709136
238883.1482,40106.229933884555,9.979345783051789,39499.43416256844,6950.135275412903,-10019092111.739391,889971514.0998608
239134.33973333333,40109.39724839904,9.978917014643674,39502.60557030733,6950.3885349384955,-9919868932.785597,907429975.8050147
239385.53126666666,40112.62805211041,9.978490674049269,39505.83921831434,6950.654422689425,-9820637710.462044,924889089.1669332
239636.7228,40115.9242220155,9.978067169372673,39509.136905896536,6950.933544324387,-9721398286.208225,942348886.6471242
239887.91433333332,40119.28770762696,9.977646938540538,39512.500500160175,6951.22653869008,-9622150496.860668,959809402.2688721
240139.10586666665,40122.720534388674,9.977230451463177,39515.93193911071,6951.534079915364,-9522894174.478838,977270671.7031426
240390.29739999998,40126.224807277846,9.976818212364478,39519.433234916,6951.856879655717,-9423629146.163052,994732732.3599294
240641.4889333333,40129.80271460516,9.976410762294972,39523.00647734213,6952.195689500081,-9324355233.863981,1012195623.4854348
240892.68046666667,40133.45653202527,9.976008681843847,39526.65383737184,6952.551303553244,-9225072254.183315,1029659386.2655078
241143.872,40137.1886267703,9.975612594067089,39530.37757101605,6952.924561208109,-9125780018.165075,1047124063.9357989
241395.06353333333,40141.0014621202,9.975223167650588,39534.1800233297,6953.316350123471,-9026478331.077133,1064589701.899125
241646.25506666666,40144.89760212443,9.974841120328865,39538.06363264374,6953.727609424351,-8927166992.182352,1082056347.850584
241897.4466,40148.87971659073,9.974467222581971,39542.03093502563,6954.159333143479,-8827845794.49884,1099524051.9109979
242148.63813333333,40152.950586357176,9.974102301635346,39546.084568981736,6954.612573924265,-8728514524.548689,1116992866.7693167
242399.82966666666,40157.11310886534,9.973747245789838,39550.227280415325,6955.088447007434,-8629172962.094597,1134462847.8346646
242651.0212,40161.37030405314,9.973403009111635,39554.46192785497,6955.588134525602,-8529820879.863702,1151934053.398772
242902.21273333332,40165.72532058714,9.973070616514923,39558.79148796876,6956.112890132347,-8430458043.257939,1169406544.8095973
243153.40426666665,40170.181442455476,9.972751169273206,39563.21906138053,6956.664043994837,-8331084210.050172,1186880386.6570141
243404.59579999998,40174.7420959437,9.972445850998877,39567.74787880523,6957.243008181835,-8231699130.065324,1204355646.971516
243655.7873333333,40179.41085701723,9.97215593413456,39572.38130752126,6957.851282481977,-8132302544.845695,1221832397.4369705
243906.97886666667,40184.19145913545,9.971882787004136,39577.12285819843,6958.490460690562,-8032894187.299571,1239310713.6185548
244158.1704,40189.087801524045,9.971627881476207,39581.976192101116,6959.162237406816,-7933473781.332242,1256790675.2070951
244409.36193333333,40194.10395793357,9.971392801298233,39586.945128686806,6959.868415387704,-7834041041.458423,1274272366.281148
244660.55346666666,40199.24418591386,9.971179251165356,39592.03365362116,6960.6109135088755,-7734595672.395094,1291755875.5882847
244911.745,40204.51293663524,9.970989066594816,39597.245927231175,6961.391775388339,-7635137368.633662,1309241296.8471684
245162.93653333333,40209.91486528939,9.970824224683941,39602.58629341881,6962.2131787339995,-7535665813.990328,1326728729.0721617
245414.12806666666,40215.454842104045,9.97068685583811,39608.05928905789,6963.077445482299,-7436180681.1334715,1344218276.9223633
245665.3196,40221.137964007154,9.97057925656396,39613.669653897305,6963.987052801952,-7336681631.086807,1361710051.0771508
245916.51113333332,40226.969566977925,9.970503903433315,39619.422340993784,6964.9446450442665,-7237168312.707019,1379204168.6404994
246167.70266666665,40232.955239123105,9.970463468334398,39625.32252769735,6965.95304672978,-7137640362.134504,1396700753.57656
246418.89419999998,40239.100834518336,9.97046083513946,39631.37562721208,6967.015276670104,-7038097402.215816,1414199937.1792204
246670.0857333333,40245.41248785531,9.970499117931627,39637.58730075395,6968.134563333977,-6938539041.89633,1431701858.5786302
246921.27726666667,40251.89662993603,9.970581680949254,39643.96347032625,6969.3143615777135,-6838964875.581611,1449206665.2879574
247172.4688,40258.560004055886,9.970712160423101,39650.51033213099,6970.55837087259,-6739374482.465892,1466714513.7939646
247423.66033333333,40265.40968331695,9.970894488500655,39657.234370631966,6971.870555175387,-6639767425.826068,1484225570.195337
247674.85186666666,40272.45308891212,9.971132919472895,39664.14237328169,6973.255164603386,-6540143252.279524,1501740010.893085
247926.0434,40279.698009418775,9.97143205854243,39671.24144591922,6974.716759091775,-6440501491.004142,1519258023.337763
248177.23493333333,40287.15262113824,9.971796893397643,39678.539028840125,6976.260234229804,-6340841652.9187765,1536779806.838724
248428.42646666666,40294.825509513066,9.972232828886533,39686.04291353167,6977.890849492235,-6241163229.822524,1554305573.4411337
248679.618,40302.7256916486,9.972745725115734,39693.76126005661,6979.61425910491,-6141465693.491126,1571835548.8770556
248930.80953333332,40310.8626399575,9.97334193933557,39701.70261505648,6981.436545807687,-6041748494.728906,1589369973.597529
249182.00106666665,40319.24630693635,9.974028372011048,39709.87593033017,6983.364257804771,-5942011062.374724,1606909103.8932717
249433.19259999998,40327.887151069684,9.974812517521773,39718.29058192465,6985.4044492217345,-5842252802.260584,1624453213.1123924
249684.3841333333,40336.79616384085,9.975702519981162,39726.95638965162,6987.564724420405,-5742473096.121673,1642002592.9843414
249935.57566666667,40345.984897807466,9.976707234717345,39735.88363691577,6989.853286557399,-5642671300.456922,1659557555.0602539
250186.7672,40355.465495672965,9.977836296015127,39745.083090706146,6992.278990809468,-5542846745.339437,1677118432.2808495
250437.95873333333,40365.25072025262,9.979100191780356,39754.56602156028,6994.851402728966,-5442998733.176618,1694685580.6841714
250689.15026666666,40375.353985191396,9.980510345855269,39764.34422326094,6997.580862235546,-5343126537.420298,1712259381.2666554
250940.3418,40385.78938624059,9.982079208785944,39774.43003196442,7000.478553795455,-5243229401.22791,1729840242.0123503
251191.53333333333,40396.57173283798,9.983820357920369,39784.83634438656,7003.556583387,-5143306536.076528,1747428600.1065557
251442.72486666666,40407.716579660635,9.985748607797737,39795.57663458524,7006.828062899385,-5043357120.332666,1765024924.3517053
251693.9164,40419.24025772682,9.987880131875402,39806.66496877329,7010.307202661089,-4943380297.782014,1782629717.80501
251945.10793333332,40431.15990451167,9.990232596728216,39818.116017470704,7014.009412841882,-4843375176.124816,1800243520.6591883
252196.29946666665,40443.493492404894,9.992825309943841,39829.94506415578,7017.951414517636,-4743340825.444552,1817866913.389534
252447.49099999998,40456.25985467581,9.995679383024198,39842.16800939778,7022.151361226377,-4643276276.659862,1835500520.1926188
252698.6825333333,40469.47870791294,9.99881791068377,39854.80136924328,7026.6289718742555,-4543180519.972455,1853145012.744038
252949.87406666667,40483.170669670486,10.002266168004354,39867.86226638022,7031.405675866278,-4443052503.327149,1870801114.304809
253201.0656,40497.35726977078,10.006051826956307,39881.36841231089,7036.504771332641,-4342891130.904172,1888469604.208229
253452.25713333333,40512.06095337707,10.010205193818141,39895.338078421846,7041.951597289141,-4242695261.668751,1906151322.761176
253703.44866666666,40527.30507355299,10.014759469007343,39909.79005343775,7047.773720498917,-4142463708.0087614,1923847176.5958724
253954.6402,40543.113870555935,10.019751030758774,39924.74358427973,7054.001137679229,-4042195234.4980617,1941558144.5099459
254205.83173333333,40559.51243456202,10.025219743931547,39940.218296810795,7060.666493504094,-3941888556.831254,1959285283.8340468
254457.02326666666,40576.52664787868,10.0312092949639,39956.23409233341,7067.805314569835,-3841542340.985183,1977029737.3671174
254708.2148,40594.18310195972,10.037767553593685,39972.811015003026,7075.456259089238,-3741155202.6736774,1994792740.9194124
254959.40633333332,40612.50898368746,10.044946961376409,39989.96908453348,7083.66138152802,-3640725707.1751394,2012575631.5021887
255210.59786666665,40631.531924422496,10.052804946210196,40007.72808769706,7092.466410654328,-3540252369.627746,2030379856.200215
255461.78939999998,40651.27980424395,10.061404360951817,40026.10732117214,7101.921038489696,-3439733655.9045057,2048206981.758337
255712.9809333333,40671.78050261858,10.070813942701811,40045.12527728253,7112.079216370771,-3339167984.2003503,2066058704.9056246
255964.17246666667,40693.06158546512,10.081108787356655,40064.79926313683,7122.999452688956,-3238553727.485985,2083936863.429303
256215.364,40715.14991725797,10.092370831464624,40085.144942664185,7134.745104794971,-3137889217.008359,2101843447.9946933
256466.55553333333,40738.0711855004,10.10468933015954,40106.17579013233,7147.384654956067,-3037172747.04525,2119780614.685622
256717.74706666666,40761.8493236853,10.118161315854522,40127.90244303658,7160.991957051926,-2936402581.151168,2137750698.2107246
256968.9386,40786.5058178869,10.132892017326608,40150.33194192014,7175.646436813125,-2835576960.1629143,2155756225.6832128
257220.13013333332,40812.05888157976,10.148995212697248,40173.46684493893,7191.433223782734,-2734694112.264503,2173799930.8331437
257471.32166666666,40838.52248342169,10.166593482531965,40197.304206094675,7208.443187791818,-2633752265.4409933,2191884768.450138
257722.5132,40865.90521390584,10.185818320831249,40221.83440838199,7226.772846619386,-2532749662.676595,2210013928.778897
257973.70473333332,40894.20897941672,10.20681005216324,40247.039847060856,7246.524104790011,-2431684580.2705755,2228190851.4980183
258224.89626666665,40923.427516842596,10.229717492869586,40272.8934643844,7267.803776424773,-2330555349.650376,2246419238.80328
258476.08779999998,40953.54472911577,10.254697283682741,40299.357145945985,7290.722838181275,-2229360383.0488014,2264703066.989337
258727.27933333334,40984.532852537166,10.281912811091832,40326.38000093313,7315.395352340072,-2128098203.3736198,2283046595.779902
258978.47086666667,41016.35048114749,10.31153262668973,40353.8965644921,7341.936996093131,-2026767478.5244603,2301454374.499214
259229.6624,41048.94049226428,10.343728269358476,40381.82498042358,7370.463132523742,-1925367060.2934299,2319931244.0136094
259480.85393333333,41082.227940857316,10.37867139691078,40410.06524647854,7401.086363494539,-1823896027.8118424,2338482333.2119226
259732.04546666666,41116.11801840696,10.416530144655258,40438.49763192325,7433.913516883745,-1722353735.2661703,2357113048.6531816
259983.237,41150.49420320149,10.457464651622777,40466.981406227096,7469.042042711353,-1620739863.2946591,2375829055.9113913
260234.42853333332,41185.21676148304,10.50162173422003,40495.354045961845,7506.555826911907,-1519054473.0901368,2394636251.1179776
260485.62006666666,41220.12178885489,10.549128744585229,40523.431110184916,7546.5204794081765,-1417298061.7810318,2413540721.2756767
260736.8116,41255.02100379505,10.60008672809921,40551.00698721679,7588.978214902594,-1315471617.1602356,2432548692.1290565
260988.00313333332,41289.702513475546,10.654563089869812,40577.856711236454,7633.942518363039,-1213576669.3144376,2451666462.7603693
261239.19466666665,41323.93275906107,10.712584088190766,40603.73901862473,7681.392867365425,-1111615336.2267199,2470900326.660379
261490.38619999998,41357.45980630641,10.774127583776735,40628.40075563167,7731.269861415909,-1009590360.0513407,2490256479.810154
261741.57773333334,41390.01807272179,10.83911657172017,40651.58265775768,7783.471171638701,-907505130.5729544,2509740917.2824354
261992.76926666667,41421.33447415487,10.907414089253944,40673.02639920222,7837.848757765734,-805363692.4467629,2529359320.975348
262243.9608,41451.13583688806,10.978820105729527,40692.48266656171,7894.207787974738,-703170733.2424994,2549116942.232394
262495.15233333333,41479.15726926879,11.053070943716364,40709.71986080035,7952.307628851602,-600931550.1236883,2569018484.1496143
262746.34386666666,41505.15103958622,11.12984164183666,40724.53289786158,8011.865143014776,-498651994.17440146,2589067989.168986
262997.5354,41528.89538909278,11.208751453963856,40736.75148660951,8072.560347029309,-396338392.8657358,2609268737.9522896
263248.7269333333,41550.20264541574,11.28937240481288,40746.247236235904,8134.044260922788,-293997452.7955937,2629623165.398909
263499.91846666666,41568.926010807765,11.371240523042427,40752.9389984954,8195.948552603453,-191636146.448752,2650132798.9543376
263751.11,41584.96448886248,11.453869094073815,40756.79598415145,8257.896381416382,-89261588.09815651,2670798223.0799003
264002.3015333333,41598.26557467726,11.536763061233325,40757.838392978716,8319.513708938097,13119095.091504935,2691619072.0374527
264253.49306666665,41608.82554467299,11.619433591486112,40756.135533816094,8380.440296084964,115498890.32753402,2712594051.1826177
264504.6846,41616.68741097194,11.701411828809777,40751.801648785346,8440.339651969378,217871018.64111328,2733720984.9970937
264755.8761333333,41621.93681615464,11.782260979781704,40744.989857523906,8498.907332018809,320229041.17261904,2754996888.3632636
265007.06766666664,41624.696307211765,11.861586087328885,40735.88477522011,8555.877175813072,422566948.2003642,2776418056.2848473
265258.2592,41625.11852363113,11.939041111215328,40724.6944183728,8611.025295311516,524879228.34016967,2797980166.4993463
