t,V,theta,vX,vY,X,Y
376787.3,40000.0,10.999999999999998,39265.08733790656,7632.359815061792,-15071492000.0,0.0
377038.4915333333,40001.3843338592,10.999615524383907,39266.49745446533,7632.360466040893,-14972859665.631601,19171841.64897088
377289.68306666665,40002.787277713636,10.999227832765497,39267.92626932897,7632.362445046206,-14874223765.915668,38343686.56835053
377540.8746,40004.20920625534,10.99883689933013,39269.3741538178,7632.365805260586,-14775584253.423342,57515538.159508996
377792.0661333333,40005.65050421354,10.998442698619991,39270.841489060236,7632.370602007386,-14676941079.780912,76687399.9600367
378043.25766666664,40007.11156668987,10.998045205581734,39272.328666315596,7632.376892846469,-14578294195.644796,95859275.64923882
378294.4492,40008.592799506885,10.997644395617522,39273.83608730956,7632.384737675084,-14479643550.675665,115031169.05387682
378545.6407333333,40010.09461957069,10.997240244639679,39275.36416458295,7632.39419883387,-14380989093.511732,134203084.15416951
378796.83226666664,40011.617455248146,10.9968327291292,39276.913321854365,7632.405341218288,-14282330771.741135,153375025.09006718
379048.02379999997,40013.161746759484,10.996421826198363,39278.48399439736,7632.418232395789,-14183668531.873394,172546996.16781244
379299.2153333333,40014.72794658696,10.996007513657807,39280.076629432784,7632.432942729056,-14085002319.309906,191719001.86680296
379550.4068666666,40016.31651990032,10.995589770088232,39281.691686537095,7632.449545505661,-13986332078.313433,210891046.84677157
379801.59839999996,40017.92794500001,10.99516857491721,39283.32963806726,7632.468117074531,-13887657751.976536,230063135.95530033
380052.78993333335,40019.56271377878,10.994743908501324,39284.99096960313,7632.488736989603,-13788979282.188934,249235274.23568615
380303.9814666667,40021.221332202724,10.994315752214069,39286.67618040812,7632.511488161115,-13690296609.603722,268407466.9351766
380555.173,40022.90432081263,10.993884088539936,39288.38578390896,7632.5364570149695,-13591609673.602398,287579719.5135956
380806.36453333334,40024.61221524672,10.993448901175022,39290.12030819561,7632.563733660666,-13492918412.25869,306752037.65237975
381057.5560666667,40026.3455667857,10.993010175134735,39291.88029654214,7632.5934120683205,-13394222762.301064,325924427.26404786
381308.7476,40028.10494292133,10.992567896869005,39293.666307949716,7632.625590255318,-13295522659.073925,345096894.5021266
381559.93913333333,40029.8909279497,10.992122054385579,39295.478917712724,7632.6603704831905,-13196818036.497417,364269445.77155733
381811.13066666666,40031.70412359039,10.991672637381946,39297.318718009206,7632.6978594653565,-13098108827.025764,383442087.7396114
382062.3222,40033.54514963284,10.991219637386525,39299.18631851677,7632.738168586381,-12999394961.604107,402614827.3473404
382313.5137333333,40035.41464461133,10.99076304790979,39301.08234705525,7632.781414133496,-12900676369.623753,421787671.8215928
382564.70526666666,40037.3132665101,10.990302864605985,39303.007450257566,7632.8277175411295,-12801952978.875778,440960628.6876276
382815.8968,40039.24169349998,10.989839085446272,39304.96229427,7632.877205649287,-12703224715.502918,460133705.78235924
383067.0883333333,40041.20062470839,10.989371710904084,39306.947565483635,7632.930010976654,-12604491503.949646,479306911.2682695
383318.27986666665,40043.19078102434,10.988900744153591,39308.96397129832,7632.986272009366,-12505753266.910381,498480253.64802414
383569.4714,40045.21290594021,10.988426191282247,39311.012240921016,7633.046133506469,-12407009925.275742,517653741.7798358
383820.6629333333,40047.267766432386,10.987948061518422,39313.09312620018,7633.109746823136,-12308261398.076733,536827384.89361537
384071.85446666664,40049.35615388281,10.987466367475262,39315.20740249816,7633.177270252822,-12209507602.426813,556001192.6079582
384323.046,40051.47888504346,10.986981125411983,39317.3558696035,7633.248869389594,-12110748453.4617,575175174.9480145
384574.2375333333,40053.63680304641,10.986492355513855,39319.53935268538,7633.324717511981,-12011983864.276852,594349342.3642963
384825.42906666663,40055.83077846152,10.986000082192328,39321.75870329229,7633.404995989785,-11913213745.862473,613523705.7524759
385076.62059999997,40058.06171040481,10.9855043344068,39324.01480039745,7633.48989471539,-11814438007.035984,632698276.4742364
385327.8121333333,40060.33052769995,10.985005146009648,39326.30855149334,7633.579612561248,-11715656554.37178,651873066.3792372
385579.0036666666,40062.63819009608,10.984502556116318,39328.64089373817,7633.674357865315,-11616869292.128195,671048087.8282629
385830.19519999996,40064.985689544796,10.98399660950237,39331.01279515692,7633.774348946368,-11518076122.171497,690223353.7176279
386081.38673333335,40067.37405154002,10.983487357029567,39333.42525590013,7633.87981465128,-11419276943.896826,709398877.5049131
386332.5782666667,40069.804336524,10.982974856103278,39335.879309563505,7633.990994936475,-11320471654.145866,728574673.2361206
386583.7698,40072.27764136326,10.982459171163564,39338.37602457173,7634.108141485977,-11221660147.121143,747750755.5743321
386834.96133333334,40074.7951008987,10.981940374212668,39340.91650563013,7634.23151836865,-11122842314.296757,766927139.8299676
387086.15286666667,40077.35788957383,10.981418545381715,39343.50189524795,7634.361402737413,-11024018044.325384,786103841.9927459
387337.3444,40079.96722314596,10.980893773539773,39346.13337533727,7634.498085573481,-10925187222.941353,805280878.7654562
387588.53593333333,40082.62436048499,10.980366156948612,39348.81216889192,7634.641872478865,-10826349732.85961,824458267.5996578
387839.72746666666,40085.330605465075,10.979835803966859,39351.53954175097,7634.793084520683,-10727505453.670368,843636026.7334329
388090.919,40088.08730895464,10.97930283380752,39354.31680445158,7634.952059131092,-10628654261.729216,862814175.2313274
388342.1105333333,40090.895870910565,10.978767377353208,39357.14531417649,7635.119151066965,-10529796030.04245,881992733.0266255
388593.30206666666,40093.7577425829,10.97822957803381,39360.02647680162,7635.2947334337905,-10430930628.1474,901171720.9661117
388844.4936,40096.67442883668,10.977689592771688,39362.96174904963,7635.479198778633,-10332057921.98748,920351160.8574888
389095.6851333333,40099.64749059806,10.977147593000064,39365.9526407557,7635.67296025741,-10233177773.781696,939531075.5196313
389346.87666666665,40102.67854743229,10.97660376576064,39369.00071725222,7635.876452882173,-10134290041.888306,958711488.8358674
389598.0682,40105.76928026182,10.976058314887146,39372.1076018794,7636.0901348545785,-10035394580.662344,977892425.8104986
389849.2597333333,40108.92143423302,10.97551146228204,39375.27497862947,7636.314488992254,-9936491240.306683,997073912.6287806
390100.45126666664,40112.13682174096,10.974963449294313,39378.504594932405,7636.550024255355,-9837579866.71627,1016255976.7206088
390351.6428,40115.41732562213,10.974414538207036,39381.79826459182,7636.797277381244,-9738660301.315186,1035438646.8281686
390602.8343333333,40118.764902525756,10.973865013844161,39385.15787088019,7637.056814635913,-9639732380.886133,1054621953.0778332
390854.02586666663,40122.181586475,10.973315185306882,39388.58536980319,7637.329233691545,-9540795937.391949,1073805927.0566123
391105.21739999996,40125.669492630324,10.97276538785092,39392.082793543465,7637.615165640449,-9441850797.788696,1092990601.8934827
391356.4089333333,40129.230821267985,10.972215984917174,39395.65225409503,7637.915277156523,-9342896783.829872,1112176012.3459551
391607.6004666666,40132.86786198757,10.971667370329307,39399.295947100196,7638.230272816409,-9243933711.861237,1131362194.8922634
391858.792,40136.58299816367,10.971119970673248,39403.016155901496,7638.560897593628,-9144961392.605753,1150549187.829592
392109.98353333335,40140.37871165746,10.970574247874968,39406.815255822345,7638.90793954022,-9045979630.938057,1169737031.3787951
392361.1750666667,40144.257587805645,10.970030701994522,39410.69571869066,7639.272232671715,-8946988225.647886,1188925767.7960975
392612.3666,40148.222320704896,10.96948987425618,39414.660117620886,7639.654660072838,-8847986969.191832,1208115441.4923062
392863.55813333334,40152.27571881166,10.968952350336352,39418.71113207086,7640.056157242899,-8748975647.43274,1227306099.1601143
393114.74966666667,40156.42071087842,10.968418763933306,39422.85155319096,7640.4777157017015,-8649954039.36606,1246497789.9101186
393365.9412,40160.660352249186,10.967889800644977,39427.08428948431,7640.9203868787745,-8550921916.832372,1265690565.4162397
393617.13273333333,40164.99783153839,10.967366202184008,39431.41237279784,7641.385286310944,-8451879044.215297,1284884480.0712788
393868.32426666666,40169.43647771935,10.966848770962002,39435.83896466556,7641.873598175728,-8352825178.12393,1304079591.1534243
394119.5158,40173.97976765036,10.96633837507842,39440.36736302669,7642.386580190722,-8253760067.058881,1323275959.0045846
394370.7073333333,40178.63133406831,10.965835953753153,39445.001009342675,7642.925568912168,-8154683451.060957,1342473647.2215083
394621.89886666666,40183.39497408211,10.965342523245969,39449.74349613893,7643.491985469197,-8055595061.341448,1361672722.8607361
394873.0904,40188.27465820036,10.964859183310617,39454.598574998585,7644.087341773958,-7956494619.8929205,1380873256.6585293
395124.2819333333,40193.274539930346,10.964387124236444,39459.57016503733,7644.713247251903,-7857381839.079348,1400075323.2670188
395375.47346666665,40198.39896598806,10.963927634536114,39464.662361890325,7645.371416141083,-7758256421.204321,1419279001.5079465
395626.665,40203.652487161635,10.963482109344364,39469.87944724391,7646.063675414315,-7659118058.056037,1438484374.6454852
395877.8565333333,40209.03986987376,10.96305205959983,39475.22589894694,7646.791973383769,-7559966430.427621,1457691530.6797788
396129.04806666664,40214.566108491876,10.962639122089955,39480.706401738535,7647.558389053697,-7460801207.611314,1476900562.662991
396380.2396,40220.23643843804,10.962245070447825,39486.32585863111,7648.365142294073,-7361622046.864904,1496111569.039831
396631.4311333333,40226.05635015429,10.961871827199756,39492.08940298974,7649.214604915604,-7262428592.848729,1515324654.0147126
396882.62266666663,40232.03160398285,10.961521476973623,39498.00241135082,7650.109312735291,-7163220477.031423,1534539927.9479206
397133.81419999996,40238.16824602436,10.96119628099034,39504.07051702539,7651.051978731317,-7063997317.062511,1553757507.7833846
397385.0057333333,40244.47262504183,10.960898692974968,39510.29962453422,7652.045507396863,-6964758716.109828,1572977517.5109317
397636.1972666666,40250.95141048145,10.960631376639633,39516.69592492373,7653.093010414457,-6865504262.159588,1592200088.6661737
397887.3888,40257.611611686494,10.960397224908032,39523.265912013725,7654.19782378592,-6766233527.2768545,1611425360.871504
398138.58033333335,40264.46059838436,10.960199381071233,39530.01639962901,7655.363526568013,-6666946066.823992,1630653482.4220426
398389.7718666667,40271.5061225312,10.960041262086616,39536.95453986836,7656.593961380669,-6567641418.6345625,1649884610.920758
398640.9634,40278.75634160312,10.959926584257015,39544.0878424647,7657.893256873511,-6468319102.139996,1669118913.9674418
398892.15493333334,40286.21984342628,10.959859391555105,39551.42419529019,7659.265852357368,-6368978617.446227,1688356569.9066992
399143.34646666667,40293.90567264275,10.959844086889984,39558.97188605908,7660.716524831014,-6269619444.357354,1707597768.6406677
399394.538,40301.82335891118,10.959885466648402,39566.739625279064,7662.250418659683,-6170241041.343239,1726842712.5127854
399645.72953333333,40309.98294694438,10.95998875888331,39574.73657049811,7663.873078191322,-6070842844.447862,1746091617.2696097
399896.92106666666,40318.39502848666,10.960159665567568,39582.972351888726,7665.590483629454,-5971424266.135115,1765344713.108444
400148.1126,40327.07077633399,10.96040440938148,39591.457099203704,7667.409090518326,-5871984694.068624,1784602245.8193753
400399.3041333333,40336.02198049756,10.960729785559973,39600.20147012716,7669.33587323706,-5772523489.822117,1803864478.0312686
400650.49566666665,40345.26108660713,10.961143219389559,39609.21668003043,7671.3783729454135,-5673039987.51682,1823131690.5723104
400901.6872,40354.80123664234,10.961652830017421,39618.514533124166,7673.544750474835,-5573533492.382336,1842404183.9568753
401152.8787333333,40364.65631206862,10.962267501316036,39628.107454974,7675.843844715399,-5474003279.237533,1861682280.011785
401404.07026666665,40374.84097943682,10.962996960637609,39638.00852631667,7678.285237112374,-5374448590.888076,1880966323.656501
401655.2618,40385.370738482176,10.963851866394352,39648.2315180745,7680.879322956208,-5274868636.437428,1900256684.853404
401906.4533333333,40396.26197272584,10.964843905514194,39658.79092741734,7683.637390227094,-5175262589.508473,1919553760.7461343
402157.64486666664,40407.532002539745,10.965985901948176,39669.70201465943,7686.571706840398,-5075629586.373347,1938857978.0059733
402408.8364,40419.199140579796,10.967291937546232,39680.980840702025,7689.695617232556,-4975968723.989699,1958169795.4084914
402660.0279333333,40431.28274942067,10.968777486773654,39692.6443046375,7693.023649328651,-4876279057.942417,1977489706.6651587
402911.21946666663,40443.80330113312,10.970459566911586,39704.710181012386,7696.571633042702,-4776559600.29097,1996818243.5373805
403162.41099999996,40456.782438427945,10.972356905572035,39717.19715610155,7700.356831579341,-4676809317.323935,2016155979.2634351
403413.6025333333,40470.24303684285,10.974490127560916,39730.12486236656,7704.398086929918,-4577027127.2241,2035503532.3321447
403664.7940666666,40484.209267262624,10.97688196334058,39743.51391005167,7708.71598108548,-4477211897.649881,2054861570.6407616
403915.9856,40498.706657831346,10.979557481574258,39757.385914602535,7713.333014620644,-4377362443.24169,2074230816.0785456
404167.17713333335,40513.762154025746,10.982544348474985,39771.76351826494,7718.273804431855,-4277477523.0656,2093612049.5818253
404418.3686666667,40529.40417530144,10.985873116925266,39786.67040382272,7723.565302534773,-4177555838.0112157,2113006116.7109802
404669.5602,40545.66266628086,10.989577548572093,39802.131297951106,7729.237037929595,-4077596028.1663165,2132413933.8047023
404920.75173333334,40562.56913990839,10.993694972321688,39818.17196107817,7735.321383617896,-3977596670.197876,2151836494.772067
405171.94326666667,40580.15670933183,10.998266682841408,39834.81915994468,7741.853850883094,-3877556274.7776456,2171274878.5882444
405423.1348,40598.460104457634,11.00333838279639,39852.10061821073,7748.873412906281,-3777473284.101025,2190730257.5649853
405674.32633333333,40617.51566814177,11.008960672570431,39870.044939453626,7756.422859649328,-3677346069.5607924,2210203906.4721212
405925.51786666666,40637.36132578948,11.01518959109592,39888.68149571095,7764.549185657703,-3577172929.6528196,2229697212.590926
406176.7094,40658.03652071131,11.022087211082132,39908.04027332197,7773.304011963411,-3476952088.20974,2249211686.78387
406427.9009333333,40679.58210588604,11.029722291299652,39928.15166618538,7782.744042535465,-3376681693.081136,2268748975.667551
406679.09246666665,40702.040180779855,11.038170987539662,39949.04620466499,7792.931554643573,-3276359815.4058404,2288310874.9755774
406930.284,40725.453859535235,11.047517622277349,39970.75420622645,7803.934920959043,-3175984449.6540565,2307899344.1950035
407181.4755333333,40749.86695415557,11.057855510746226,39993.305331486496,7815.829159076729,-3075553514.6548047,2327516522.552162
407432.66706666665,40775.323553271526,11.06928783784664,40016.728026733574,7828.696501232846,-2975064855.8683715,2347164746.4098005
407683.8586,40801.86747371589,11.08192857578806,40041.048831209395,7842.626973111697,-2874516249.214441,2366846568.1150813
407935.0501333333,40829.54155853761,11.095903426265638,40066.29152465847,7857.718965541518,-2773905406.824644,2386564776.304546
408186.24166666664,40858.386791410434,11.111350762909678,40092.47608807459,7874.079776308456,-2673229985.153255,2406322417.624217
408437.43319999997,40888.44119390226,11.12842253929207,40119.617448535675,7891.82609098525,-2572487595.950775,2426122819.756544
408688.6247333333,40919.738469183874,11.147285114481443,40147.7239780131,7911.084361304645,-2471675820.6803665,2445969615.5561085
408939.81626666663,40952.30635408434,11.168119931600044,40176.79571676311,7931.991026990794,-2370792229.033164,2465866767.977453
409191.00779999996,40986.164641819756,11.191123964762408,40206.82229529901,7954.692512008366,-2269834402.2700896,2485818595.3252296
409442.1993333333,41021.3228414163,11.21650982613892,40237.78053623325,7979.344909053082,-2168799962.1768236,2505829796.163184
409693.3908666666,41057.777448362845,11.244505398110077,40269.631730002795,8006.113247340726,-2067686606.453558,2525905472.979241
409944.5824,41095.50881626492,11.275352826710845,40302.318598452395,8035.170219512818,-1966492151.3562627,2546051153.415981
410195.77393333334,41134.47764343477,11.309306684034215,40335.76198940435,8066.694225787777,-1865214582.3408823,2566272807.539916
410446.9654666667,41174.621123747755,11.346631082672047,40369.85738554058,8100.866580514071,-1763852113.3105252,2586576859.246116
410698.157,41215.8488597676,11.38759551020082,40404.47136346146,8137.867722593491,-1662403254.7984438,2606970189.4936776
410949.34853333334,41258.03869924219,11.432469153907041,40439.43820371733,8177.872282928734,-1560866891.0043125,2627460128.6721582
411200.54006666667,41301.03273293643,11.481513515246084,40474.55692777904,8221.042896558793,-1459242365.0078373,2648054435.0567384
411451.7316,41344.633778726944,11.534973181268217,40509.589117805954,8267.522712613867,-1357529570.6907904,2668761256.0878725
411702.92313333333,41388.60276592038,11.593064737654084,40544.257949634186,8317.426659050114,-1255729048.9037373,2689589069.1977315
411954.11466666666,41432.65751138362,11.655963983391395,40578.24892330103,8370.831665625148,-1153842084.2461743,2710546599.20536
412205.3062,41476.47342598599,11.723791841770622,40611.21278825407,8427.766235703917,-1051870797.563224,2731642710.025004
412456.4977333333,41519.68668215237,11.796599645493592,40642.77110878091,8488.19997310061,-949818228.0300181,2752886269.6717873
412707.68926666665,41561.90028611725,11.874354777678358,40672.52477726158,8552.033888859198,-847688397.6886165,2774285989.3546658
412958.8808,41602.693312237665,11.956927928576022,40700.06554532304,8619.092495066572,-745486350.7632515,2795850239.7850103
413210.0723333333,41641.633265930715,12.044083416367927,40724.99030989654,8689.118788064814,-643218160.2666792,2817586850.550217
413461.26386666665,41678.29116369584,12.135474049063214,40746.917491680586,8761.773179669814,-540890895.5446905,2839502901.2187996
413712.4554,41712.2584987864,12.230641813399709,40765.50443492501,8836.63721308551,-438512546.5998379,2861604515.34462
413963.6469333333,41743.16487125321,12.329025238555422,40780.46441976319,8913.22249116763,-336091904.2223783,2883896670.240107
414214.83846666664,41770.69478727318,12.429973622660693,40791.58169811576,8990.984683419207,-233638398.84692273,2906383035.8345714
414466.02999999997,41794.60205339704,12.532767514596882,40798.72301038651,9069.341846218975,-131161905.1455456,2929065854.816199
414717.2215333333,41814.720352302465,12.636644048521124,40801.844338863186,9147.69570375166,-28672523.026504014,2951945873.52809
414968.41306666663,41830.96898114403,12.740825089591047,40800.99217236424,9225.454116308129,73819651.700595,2975022329.022042
415219.60459999996,41843.353297931186,12.84454579910008,40796.29920605846,9302.052800604977,176304752.67944607,2998292992.8315253
415470.7961333333,41851.960049103305,12.947081236063982,40787.97505643859,9376.974498583346,278773350.7385005,3021754267.144674
415721.9876666666,41856.94832264546,13.047768967863817,40776.29310961805,9449.764183466621,381216632.5992173,3045401324.87806
