t,V,theta,vX,vY,X,Y
37678.729999999996,39999.99999999999,8.600000000000003,39550.25524188023,5981.413737748382,-15071492000.0,0.0
37804.32576666667,40001.3944555823,8.599699158665725,39551.66542572548,5981.414585410595,-14972143348.001034,15024804.882860806
37929.921533333334,40002.807793431246,8.599396754009295,39553.09444386494,5981.417162588165,-14872791130.3165,30049614.024233032
38055.5173,40004.24039394542,8.599092805289851,39554.54267045528,5981.421539041256,-14773435299.172382,45074431.85439755
38181.113066666665,40005.69264764722,8.598787333669433,39556.010489466105,5981.427787348287,-14674075805.842691,60099262.982329026
38306.70883333333,40007.16495551606,8.598480362324015,39557.49829499786,5981.435983032366,-14574712600.624414,75124112.20293002
38432.304599999996,40008.657729334634,8.598171916560949,39559.00649161198,5981.446204694096,-14475345632.811666,90148984.5045905
38557.90036666667,40010.17139204866,8.597862023943197,39560.53549467373,5981.45853415111,-14375974850.66899,105173885.07708916
38683.496133333334,40011.7063781409,8.597550714420734,39562.08573070829,5981.473056584718,-14276600201.40377,120198819.31985389
38809.0919,40013.26313402002,8.59723802046964,39563.6576377708,5981.489860694068,-14177221631.137762,135223792.85059986
38934.687666666665,40014.842118424865,8.596923977239246,39565.25166583079,5981.509038858262,-14077839084.877638,150248811.51436448
39060.28343333333,40016.44380284509,8.596608622707965,39566.868277171816,5981.530687306871,-13978452506.484577,165273881.39295986
39185.879199999996,40018.0686719586,8.59629199784826,39568.507946806894,5981.554906299349,-13879061838.64282,180299008.8148645
39311.47496666667,40019.717224086875,8.595974146801328,39570.171162910454,5981.58180031385,-13779667022.827164,195324200.365577
39437.070733333334,40021.38997166882,8.595655117062178,39571.85842726759,5981.611478246023,-13680267999.269342,210349462.89845645
39562.6665,40023.08744175399,8.595334959675698,39573.57025574137,5981.644053618344,-13580864706.923265,225374803.54607472
39688.262266666665,40024.81017651628,8.595013729444435,39575.30717875907,5981.679644800637,-13481457083.42906,240400229.7321086
39813.85803333333,40026.558733788865,8.594691485148868,39577.06974181814,5981.718375242438,-13382045065.075861,255425749.18379995
39939.453799999996,40028.33368762147,8.594368289780906,39578.8585060129,5981.760373717916,-13282628586.763308,270451369.9450151
40065.04956666667,40030.13562886099,8.594044210791568,39580.67404858283,5981.8057745841115,-13183207581.96169,285477100.3899355
40190.645333333334,40031.96516575673,8.593719320353685,39582.51696348356,5981.854718053303,-13083781982.670698,300502949.2374145
40316.2411,40033.82292459124,8.593393695640644,39584.387861981595,5981.907350480366,-12984351719.376688,315528925.56603634
40441.836866666665,40035.70955033806,8.59306741912223,39586.2873732738,5981.963824666045,-12884916721.008448,330555038.8299165
40567.43263333333,40037.6257073478,8.592740578878697,39588.21614513298,5982.024300177126,-12785476914.891356,345581298.8752842
40693.028399999996,40039.57208006377,8.592413268934283,39590.17484458068,5982.088943684566,-12686032226.6999,360607715.9578915
40818.62416666667,40041.5493737687,8.592085589611445,39592.16415858852,5982.157929320704,-12586582580.408457,375634300.76129436
40944.219933333334,40043.55831536407,8.591757647907253,39594.1847948095,5982.231439056753,-12487127898.240282,390661064.4160561
41069.8157,40045.59965418369,8.591429557893406,39596.2374823406,5982.309663101869,-12387668100.614626,405688018.5199252
41195.411466666665,40047.67416284314,8.5911014411415,39598.32297251831,5982.392800325178,-12288203106.091883,420715175.1590436
41321.00723333333,40049.78263812704,8.590773427175254,39600.44203974864,5982.481058702223,-12188732831.316715,435742546.9302447
41446.602999999996,40051.925901915834,8.590445653951562,39602.5954823732,5982.574655787435,-12089257190.959036,450770146.9645043
41572.19876666667,40054.10480215429,8.590118268372382,39604.78412357334,5982.673819214303,-11989776097.652773,465797988.95161235
41697.794533333334,40056.32021386369,8.589791426829557,39607.00881231395,5982.778787225069,-11890289461.932314,480826087.16613686
41823.3903,40058.57304020002,8.589465295784942,39609.27042432906,5982.889809231906,-11790797192.166533,495854456.49475646
41948.986066666665,40060.86421356042,8.589140052388267,39611.56986315126,5983.007146411647,-11691299194.490278,510883112.46504354
42074.58183333333,40063.19469674054,8.588815885135425,39613.90806118708,5983.131072336339,-11591795372.733227,525912071.275785
42200.177599999995,40065.56548414524,8.588492994570087,39616.285980840665,5983.261873642002,-11492285628.345974,540941349.828933
42325.77336666667,40067.977603055515,8.588171594031698,39618.70461568809,5983.39985073821,-11392769860.323242,555970965.7632852
42451.36913333333,40070.43211495458,8.587851910453258,39621.164991704965,5983.545318561262,-11293247965.124071,571000937.4900005
42576.9649,40072.930116916075,8.587534185212455,39623.66816854985,5983.698607373936,-11193719836.588856,586031284.2300631
42702.560666666664,40075.47274305786,8.587218675040036,39626.215240906444,5983.860063615051,-11094185365.853086,601062026.0538163
42828.15643333333,40078.06116606465,8.586905652989673,39628.80733988741,5984.030050802305,-10994644441.257654,616093183.9226943
42953.752199999995,40080.696598783245,8.586595409473778,39631.445634502976,5984.208950492104,-10895096948.255533,631124779.7332917
43079.34796666667,40083.380295894145,8.586288253370249,39634.13133319761,5984.397163300428,-10795542769.314705,646156836.3639177
43204.94373333333,40086.11355566364,8.5859845132054,39636.86568545823,5984.595109989029,-10695981783.817122,661189377.7237935
43330.5395,40088.89772178066,8.585684538418777,39639.64998349748,5984.803232621667,-10596413867.953552,676222428.8050641
43456.135266666664,40091.73418528286,8.585388700716168,39642.48556401608,5985.021995795392,-10496838894.614096,691256015.737804
43581.73103333333,40094.62438657683,8.585097395517364,39645.373810048055,5985.251887952327,-10397256733.27416,706290165.8482155
43707.326799999995,40097.569817557334,8.584811043506065,39648.31615289316,5985.493422777801,-10297667249.875713,721324907.7202235
43832.92256666667,40100.57202383108,8.584530092289706,39651.31407414099,5985.747140691193,-10198070306.70356,736360271.2606982
43958.51833333333,40103.63260705043,8.5842550181778,39654.36910779126,5986.01361043631,-10098465762.256413,751396287.7685403
44084.1141,40106.75322736319,8.583986328087992,39657.4828424753,5986.293430778725,-9998853471.112518,766432990.0078923
44209.709866666664,40109.93560598459,8.583724561589884,39660.65692378376,5986.587232318071,-9899233283.789577,781470412.2857517
44335.30563333333,40113.18152789814,8.583470293097516,39663.89305670591,5986.895679423954,-9799605046.598667,796508590.5342869
44460.901399999995,40116.4928446922,8.583224134222283,39667.193008186165,5987.219472304881,-9699968601.49191,811547562.3981758
44586.49716666667,40119.87147753974,8.5829867362992,39670.5586098037,5987.559349220344,-9600323785.903557,826587367.3273159
44712.09293333333,40123.31942032886,8.582758793100384,39673.9917605812,5987.916088847086,-9500670432.58418,841628046.6752757
44837.6887,40126.83874295219,8.582541043751004,39677.49442992918,5988.290512811462,-9401008369.427668,856669643.8038926
44963.284466666664,40130.43159476377,8.582334275864111,39681.06866073253,5988.683488400859,-9301337419.290607,871712204.1944469
45088.88023333333,40134.10020821225,8.582139328912405,39684.71657258615,5989.095931468199,-9201657399.803774,886755775.5658811
45214.475999999995,40137.846902659796,8.581957097856387,39688.44036518681,5989.528809544776,-9101968123.175274,901800408.0005655
45340.07176666667,40141.674088396634,8.581788537050285,39692.24232188876,5989.983145177965,-9002269395.984976,916846154.0781558
45465.66753333333,40145.584270861335,8.581634664448867,39696.124813430586,5990.460019511789,-8902561018.969803,931893069.0181271
45591.2633,40149.58005507769,8.581496566140501,39700.09030184125,5990.960576129881,-8802842786.799435,946941210.8316197
45716.859066666664,40153.66415031931,8.58137540123401,39704.1413445334,5991.486025182069,-8703114487.841976,961990640.4832795
45842.45483333333,40157.83937501358,8.581272407129424,39708.28059859211,5992.037647817704,-8603375903.9191,977041422.0638342
45968.050599999995,40162.108661897044,8.581188905205464,39712.51082526749,5992.6168009508365,-8503626810.050164,992093622.9742072
46093.64636666667,40166.475063434715,8.581126306959622,39716.834894679494,5993.224922384616,-8403866974.18479,1007147314.1220329
46219.24213333333,40170.9417575161,8.581086120640014,39721.255790743424,5993.863536324678,-8304096156.923338,1022202570.131514
46344.8379,40175.51205344129,8.581069958411774,39725.77661632455,5994.5342593139485,-8204314111.224742,1037259469.5676359
46470.433666666664,40180.18939821053,8.581079544104753,39730.40059862998,5995.23880662419,-8104520582.101096,1052318095.1758393
46596.02943333333,40184.97738313094,8.581116721593697,39735.131094845834,5995.978999142778,-8004715306.298392,1067378534.1383445
46721.625199999995,40189.879750754415,8.581183463866758,39739.97159802714,5996.75677079665,-7904898011.962789,1082440878.348422
46847.22096666667,40194.90040216038,8.581281882843541,39744.92574324757,5997.574176559153,-7805068418.29176,1097505224.7040136
46972.81673333333,40200.04340459734,8.581414240009568,39749.99731401503,5998.433401089622,-7705226235.169472,1112571675.4222279
47098.4125,40205.312999496455,8.581582957940391,39755.19024895845,5999.336768060044,-7605371162.785693,1127640338.3763652
47224.008266666664,40210.71361087022,8.581790632795474,39760.50864878945,6000.286750228051,-7505502891.237586,1142711327.4572687
47349.60403333333,40216.2498541083,8.58204004786954,39765.956783541245,6001.285980320833,-7405621100.11364,1157784762.9609544
47475.199799999995,40221.926545181544,8.582334188297358,39771.53910008484,6002.337262800427,-7305725458.059091,1172860772.004641
47600.79556666667,40227.74871026375,8.582676257017013,39777.260229920226,6003.443586587118,-7205815622.322102,1187939488.9734871
47726.39133333333,40233.72159577869,8.58306969210665,39783.12499723707,6004.608138824643,-7105891238.280037,1203021056.0005407
47851.9871,40239.85067887737,8.583518185620395,39789.138427235644,6005.834319778334,-7005951938.945148,1218105623.4826305
47977.582866666664,40246.14167834762,8.584025704061123,39795.30575469427,6007.125758965461,-6905997344.449045,1233193350.635162
48103.17863333333,40252.60056595353,8.58459651064045,39801.632432764,6008.486332625794,-6806027061.505339,1248284406.0890443
48228.774399999995,40259.23357819787,8.585235189490387,39808.1241419647,6009.920182649883,-6706040682.849931,1263378968.533255
48354.37016666667,40266.04722849428,8.585946672006216,39814.78679934888,6011.431737092719,-6606037786.658463,1278477227.4068599
48479.96593333333,40273.04831972854,8.586736265516608,39821.62656779038,6013.025732411366,-6506017935.940566,1293579383.6446347
48605.5617,40280.24395717952,8.587609684494636,39828.64986534364,6014.707237576819,-6405980677.910648,1308685650.4808037
48731.157466666664,40287.64156175915,8.588573084542487,39835.86337460665,6016.481680222735,-6305925543.335123,1323796254.315795
48856.75323333333,40295.24888351804,8.58963309940292,39843.27405200461,6018.354875006788,-6205852045.856156,1338911435.6513448
48982.349,40303.07401534742,8.590796881272437,39850.88913689357,6020.333054374153,-6105759681.292257,1354031450.0997367
49107.94476666667,40311.12540678943,8.592072144713914,39858.71616036134,6022.4229019269205,-6005647926.916296,1369156569.4734566
49233.54053333333,40319.41187784559,8.59346721449082,39866.76295357804,6024.631588617937,-5905516240.711872,1384287082.9620728
49359.1363,40327.94263264644,8.59499107767015,39875.037655518805,6026.966812002504,-5805364060.609381,1399423298.403724
49484.732066666664,40336.7272728143,8.596653440367136,39883.54871984649,6029.436838796167,-5705190803.7035885,1414565543.659193
49610.32783333333,40345.775810313644,8.598464789531015,39892.304920701885,6032.050551001196,-5604995865.455121,1429714168.0971978
49735.9236,40355.09867953989,8.600436460197013,39901.315357101324,6034.817495877756,-5504778618.878948,1444869544.2001965
49861.51936666667,40364.70674834592,8.602580708654818,39910.58945558703,6037.747940047471,-5404538413.723778,1460032069.300725
49987.11513333333,40374.61132764502,8.604910792006734,39920.13697071137,6040.852928026362,-5304274575.647226,1475202167.4590104
50112.7109,40384.82417915842,8.607441054608657,39929.96798286249,6044.14434548972,-5203986405.392783,1490380291.4933667
50238.306666666664,40395.35752079258,8.610187021901785,39940.09289285326,6047.634987572095,-5103673177.9759035,1505566925.1756415
50363.90243333333,40406.2240290356,8.613165502150839,39950.522412597245,6051.33863249936,-5003334141.888152,1520762585.6047378
50489.4982,40417.43683765036,8.616394696602594,39961.26755108232,6055.270120834576,-4902968518.330144,1535967825.7719765
50615.09396666667,40429.00953181292,8.619894318563167,39972.33959472355,6059.4454405923725,-4802575500.486154,1551183237.332737
50740.68973333333,40440.95613669628,8.623685721859733,39983.75008102985,6063.881818434264,-4702154252.855758,1566409453.5994182
50866.2855,40453.29109932926,8.627792039096326,39995.51076435221,6068.597817095653,-4601703910.660741,1581647152.7712295
50991.88126666666,40466.02926236575,8.632238330027967,40007.63357229363,6073.613439108964,-4501223579.348809,1596897061.4166098
51117.47703333333,40479.18582817957,8.637051740253904,40020.13055115094,6078.950236770246,-4400712334.219489,1612159958.224104
51243.0728,40492.77631145196,8.642261670259701,40033.013798525855,6084.631428141207,-4300169220.201934,1627436678.0372367
51368.66856666667,40506.81647814193,8.647899954607125,40046.29538098684,6090.682018675956,-4199593251.819366,1642728116.1881638
51494.26433333333,40521.322268423726,8.654001050766126,40059.98723438663,6097.128927801414,-4098983413.380541,1658035233.1435764
51619.8601,40536.30970084163,8.6606022366877,40074.101044144474,6104.0011194499275,-3998338659.444979,1673359059.474273
51745.45586666666,40551.79475457386,8.667743815710702,40088.64810249432,6111.32973512823,-3897657915.615869,1688700701.1568367
51871.05163333333,40567.793226319736,8.675469326757208,40103.639139387145,6119.14822759254,-3796940079.7224593,1704061345.2117224
51996.6474,40584.32055793786,8.683825756974606,40119.0841234316,6127.492492567925,-3696184023.462482,1719442265.6764953
52122.24316666667,40601.39163058275,8.692863753000834,40134.9920289799,6136.400995182402,-3595388594.5845838,1734844829.905655
52247.83893333333,40619.02052073404,8.702637825832849,40151.37056524025,6145.914886863625,-3494552619.7008705,1750270505.1790564
52373.4347,40637.220213216926,8.713206542838574,40168.225863158164,6156.078107350318,-3393674907.8302326,1765720865.5890036
52499.03046666666,40656.002266114716,8.72463269874205,40185.562115799796,6166.937465186531,-3292754254.783943,1781197599.1611583
52624.62623333333,40675.37642242764,8.736983455409279,40203.38116814949,6178.542688584811,-3191789448.5156393,1796702515.1460233
52750.222,40695.35016350506,8.75033043795743,40221.68205267114,6190.946436864414,-3090779275.5677047,1812237551.3953798
52875.81776666667,40715.92819975598,8.764749772109806,40240.46046776626,6204.204260807767,-2989722528.7545137,1827804781.7112336
53001.41353333333,40737.11189502852,8.780322044855877,40259.708197493805,6218.374498269203,-2888618016.228953,1843406423.02309
53127.0093,40758.8986224666,8.797132167421221,40279.412472715005,6233.518089281582,-2787464572.0808926,1859044842.2124562
53252.60506666666,40781.281051736456,8.81526911642861,40299.555276319275,6249.698292846329,-2686261068.613211,1874722562.3612442
53378.20083333333,40804.246370418696,8.834825526128794,40320.11259850629,6266.980285719881,-2585006430.4306917,1890442268.153472
53503.7966,40827.77544622777,8.855897101972293,40341.05365236551,6285.430622047029,-2483699650.4573827,1906206810.1080391
53629.39236666667,40851.841941682826,8.878581823955958,40362.340065300436,6305.116531934954,-2382339807.9662924,1922019207.2657175
53754.98813333333,40876.411398997276,8.902978907596768,40383.92506822533,6326.10503738564,-2280926088.6588974,1937882647.8980808
53880.5839,40901.44032028949,8.929187491659805,40405.752711859226,6348.46186586041,-2179457806.768173,1953800487.75309
54006.17966666666,40926.87527663143,8.957305025597904,40427.75714766018,6372.2501456515165,-2077934429.0753093,1969776245.3059542
54131.77543333333,40952.65208866031,8.987425336808725,40449.8620196009,6397.52887372168,-1976355600.6252055,1985813593.4504852
54257.3712,40978.69513096998,9.019636369034187,40471.980021468844,6424.351156249905,-1874721171.7988029,2001916347.0526426
54382.96696666667,41004.91682148683,9.054017599150454,40494.01268179483,6452.762235174445,-1773031226.2526295,2018088445.8026888
54508.56273333333,41031.21736443684,9.090637160583016,40515.85044370708,6482.797330691718,-1671286109.071613,2034333931.8544204
54634.1585,41057.48481995141,9.129548727522463,40537.373108562555,6514.479349704744,-1569486454.3074536,2050656921.8384025
54759.75426666666,41083.59557325773,9.17078824422553,40558.4507085695,6547.816532825287,-1467633210.9027078,2067061572.9888337
54885.35003333333,41109.41527010469,9.214370616299647,40578.944863266624,6582.800136255404,-1365727665.845254,2083552043.335717
55010.9458,41134.80027112685,9.2602865133229,40598.71065645474,6619.4022674985945,-1263771463.2776532,2100132446.185891
55136.54156666667,41159.59965528534,9.308499460788074,40617.599043416856,6657.5740124753775,-1161766618.2222297,2116806799.4421794
55262.13733333333,41183.6577712651,9.358943419746437,40635.45976344929,6697.244002855031,-1059715523.596965,2133578970.6753678
55387.7331,41206.817296894136,9.411521059925418,40652.14469161201,6738.317572796308,-957620949.3085136,2150452619.245872
55513.32886666666,41228.92272288443,9.466102922181278,40667.51151941536,6780.676640851923,-855486032.4294739,2167431137.139321
55638.92463333333,41249.82413253666,9.522527635921612,40681.427611490995,6824.180423774132,-753314257.8002548,2184517590.494934
55764.5204,41269.38110872593,9.580603305838745,40693.77384968526,6868.667044480824,-651109428.8310853,2201714664.027144
55890.11616666667,41287.466569217475,9.640110112151323,40704.44825317429,6913.9560389770495,-548875628.7918079,2219024610.6321197
56015.71193333333,41303.97031645376,9.700804085023359,40713.36915800137,6959.851701494506,-446617173.4270418,2236449208.403742
56141.3077,41318.802092226295,9.762421925266885,40720.477754845844,7006.147140452335,-344338556.2725197,2253989727.0455403
56266.90346666666,41331.893952508486,9.824686660015203,40725.73982006528,7052.628858075313,-242044388.52092943,2271646905.263126
56392.49923333333,41343.20182162771,9.887313854178627,40729.146529193255,7099.0816214032375,-139739335.64178795,2289420940.1833577
56518.095,41352.70614340633,9.950018054947913,40730.71430833041,7145.293368090889,-37428053.16040813,2307311489.217901
56643.69076666667,41360.41161312509,10.01251913292143,40730.48374945172,7191.059890084528,64884875.975641176,2325317684.1283026
56769.28653333333,41366.34604024274,10.074548200850643,40728.51768213307,7236.189061742352,167195000.16825575,2343438156.419544
56894.8823,41370.55845008381,10.135852836339408,40724.89854897102,7280.504422622045,269498052.1150169,2361671072.6464815
57020.47806666666,41373.116577063716,10.196201401215589,40719.725269517454,7323.847982742838,371789994.3954652,2380014177.806715
57146.07383333333,41374.10392878048,10.255386328557485,40713.10979521714,7366.082182009844,474067056.66226023,2398464844.7401896
57271.6696,41373.6166085695,10.313226328774142,40705.17355594729,7407.09099803073,576325763.9200441,2417020127.365883
57397.26536666667,41371.76007553832,10.36956754001284,40696.0439801742,7446.780251332334,678562955.8646172,2435676815.646887
