t,V,theta,vX,vY,X,Y
414466.02999999997,40000.0,11.600000000000009,39183.00998397376,8043.116845838593,-15071492000.0,0.0
414591.62576666666,40001.38141832176,11.599594718478096,39184.42008111816,8043.117447888061,-14973065836.995464,20203628.532853596
414717.2215333333,40002.7813634988,11.59918581464044,39185.84883722991,8043.119278094401,-14874636108.740929,40407260.090301774
414842.8173,40004.2002081853,11.598773251664769,39187.29662260241,8043.122385538254,-14776202767.907623,60610897.81780211
414968.41306666663,40005.63833502282,11.598356992708439,39188.763817318446,8043.126821272932,-14677765766.224537,80814544.98652202
415094.0088333333,40007.09613697447,11.597937000940565,39190.25081157322,8043.132638412851,-14579325054.453424,101018204.99840225
415219.60459999996,40008.5740176725,11.597513239576758,39191.75800601007,8043.139892226436,-14480880582.362999,121221881.39144808
415345.20036666666,40010.07239177993,11.59708567191671,39193.285812069604,8043.148640233759,-14382432298.702253,141425577.84525946
415470.7961333333,40011.59168536684,11.596654261384785,39194.834652352714,8043.158942309165,-14283980151.172894,161629298.18681276
415596.3919,40013.13233630206,11.596218971573885,39196.404960998305,8043.170860789198,-14185524086.400835,181833046.3965065
415721.9876666666,40014.69479466087,11.595779766292788,39197.99718407621,8043.1844605861115,-14087064049.906744,202036826.61448526
415847.5834333333,40016.2795231498,11.595336609617199,39199.6117799962,8043.199809307299,-13988599986.07556,222240643.14725578
415973.1792,40017.8869975488,11.594889465944835,39201.249219933736,8043.216977380987,-13890131838.124971,242444500.47461075
416098.77496666665,40019.51770717223,11.594438300054776,39202.90998827327,8043.236038188572,-13791659548.072813,262648403.25687635
416224.37073333334,40021.17215534916,11.593983077171421,39204.59458307001,8043.25706820397,-13693183056.70331,282852356.342501
416349.9665,40022.850859924125,11.59352376303339,39206.303516530934,8043.280147140434,-13594702303.532152,303056364.7760029
416475.5622666667,40024.55435377924,11.5930603239677,39208.037315516114,8043.305358105248,-13496217226.77032,323260433.8062963
416601.1580333333,40026.28318537885,11.59259272696965,39209.79652206119,8043.332787762817,-13397727763.28665,343464568.8954164
416726.7538,40028.03791933777,11.59212093978877,39211.581693922155,8043.36252650662,-13299233848.569029,363668775.72766465
416852.34956666664,40029.81913701423,11.591644931021342,39213.393405143535,8043.394668640608,-13200735416.684217,383873060.21919787
416977.94533333334,40031.627437129035,11.591164670209922,39215.23224665107,8043.429312570606,-13102232400.236204,404077428.5280845
417103.5411,40033.46343641192,11.590680127950424,39217.09882687018,8043.466561006355,-13003724730.323038,424281887.06485564
417229.13686666667,40035.32777027679,11.590191276007305,39218.99377237149,8043.506521174844,-12905212336.492077,444486442.50357616
417354.7326333333,40037.22109352723,11.589698087437437,39220.91772854482,8043.549305045664,-12806695146.693588,464691101.79346716
417480.3284,40039.14408109379,11.589200536723363,39222.87136030302,8043.595029569126,-12708173087.232601,484895872.1711099
417605.92416666663,40041.09742880487,11.588698599916581,39224.8553528173,8043.643816927973,-12609646082.718973,505100761.17326415
417731.51993333333,40043.081854192795,11.588192254791663,39226.870412285556,8043.695794803548,-12511114056.015553,525305776.6503364
417857.11569999997,40045.09809733718,11.587681481011979,39228.91726673553,8043.75109665737,-12412576928.184374,545510926.7805358
417982.71146666666,40047.14692174726,11.587166260307951,39230.996666864514,8043.809862029107,-12314034618.430798,565716220.0847572
418108.3072333333,40049.22911528565,11.58664657666875,39233.10938691764,8043.872236852025,-12215487044.045483,585921665.4422334
418233.903,40051.34549113545,11.586122416548507,39235.256225606725,8043.938373787086,-12116934120.344112,606127272.1070031
418359.4987666666,40053.4968888133,11.585593769088083,39237.438007071876,8044.008432576909,-12018375760.604755,626333049.7252418
418485.0945333333,40055.68417523082,11.585060626353698,39239.65558188813,8044.082580420955,-11919811876.002754,646539008.3535081
418610.69029999996,40057.908245807,11.584522983593628,39241.90982811962,8044.160992373349,-11821242375.54303,666745158.4779596
418736.28606666665,40060.170025634674,11.583980839514437,39244.201652423784,8044.243851764891,-11722667165.98968,686951511.034597
418861.88183333335,40062.470470703774,11.583434196578255,39246.53199120843,8044.331350650915,-11624086151.792732,707158077.4306008
418987.4776,40064.81056918481,11.582883061322738,39248.90181184457,8044.423690286777,-11525499235.01193,727364869.5668252
419113.0733666667,40067.19134277592,11.582327444705545,39251.31211393807,8044.521081632901,-11426906315.237398,747571899.8615233
419238.6691333333,40069.61384811709,11.58176736247524,39253.763930663474,8044.623745891448,-11328307289.507025,767779181.275379
419364.2649,40072.07917827559,11.581202835570751,39256.25833016351,8044.731915076857,-11229702052.220438,787986727.3379276
419489.86066666665,40074.58846430648,11.580633890551665,39258.796417017926,8044.845832622652,-11131090495.04936,808194552.1754541
419615.45643333334,40077.142876892896,11.58006056006186,39261.379333785735,8044.965754027133,-11032472506.844198,828402670.5404627
419741.0522,40079.74362807063,11.579482883329192,39264.008262624986,8045.091947540758,-10933847973.536654,848611097.8428187
419866.6479666667,40082.39197304202,11.578900906704137,39266.68442699463,8045.224694898251,-10835216778.038168,868819850.1826711
419992.2437333333,40085.08921208457,11.578314684240654,39269.409093443224,8045.364292098726,-10736578800.133995,889028944.3852725
420117.8395,40087.83669255996,11.577724278322693,39272.18357348958,8045.511050237381,-10637933916.37265,909238398.0378215
420243.43526666664,40090.63581102955,11.577129760340187,39275.00922560081,8045.665296392616,-10539281999.950535,929448229.5284605
420369.03103333333,40093.488015482886,11.576531211418638,39277.88745727354,8045.827374572733,-10440622920.59146,949658458.0875745
420494.62679999997,40096.39480768615,11.575928723206854,39280.81972722449,8045.997646726748,-10341956544.420801,969869103.8315451
420620.22256666666,40099.357745658046,11.575322398727675,39283.807547697004,8046.1764938242195,-10243282733.834024,990080187.809128
420745.8183333333,40102.378446280985,11.574712353297162,39286.852486890566,8046.364317009398,-10144601347.359251,1010291732.0506316
420871.4141,40105.45858805622,11.574098715518058,39289.95617152081,8046.561538835497,-10045912239.513575,1030503759.6200922
420997.00986666663,40108.599914011924,11.573481628353925,39293.120289518076,8046.768604585343,-9947215260.652777,1050716294.6706538
421122.6056333333,40111.804234774,11.572861250291039,39296.346592873066,8046.985983685252,-9848510256.814072,1070929362.5033785
421248.20139999996,40115.07343181021,11.572237756595653,39299.636900638776,8047.2141712195435,-9749797069.551537,1091142989.6297286
421373.79716666666,40118.40946085866,11.571611340675071,39302.99310209848,8047.453689553803,-9651075535.763777,1111357203.8379858
421499.3929333333,40121.81435555278,11.57098221555175,39306.417160110264,8047.7050900756885,-9552345487.513426,1131572034.2638886
421624.9887,40125.29023125568,11.570350615460514,39309.91111463935,8047.968955062909,-9453606751.838022,1151787511.4657974
421750.5844666667,40128.83928911778,11.56971679757998,39313.47708649012,8048.245899688859,-9354859150.55176,1172003667.504715
421876.1802333333,40132.46382037243,11.56908104391036,39317.117281250816,8048.536574177354,-9256102500.037615,1192220536.0295284
422001.776,40136.16621088575,11.568443663311005,39320.833993464505,8048.841666118996,-9157336611.029282,1212438152.3678553
422127.37176666665,40139.94894597759,11.567804993712416,39324.62961104121,8049.1619029628455,-9058561288.382338,1232656553.6229212
422252.96753333334,40143.81461553224,11.56716540451887,39328.50661992681,8049.498054698377,-8959776330.834024,1252875778.7769248
422378.5633,40147.7659194187,11.56652529921948,39332.4676090458,8049.850936744119,-8860981530.750948,1273095868.8013885
422504.1590666667,40151.805673241775,11.565885118227337,39336.51527553585,8050.221413060956,-8762176673.864027,1293316866.7750351
422629.7548333333,40155.9368144471,11.565245341968344,39340.65243029369,8050.6103995098065,-8663361538.989908,1313538818.0097806
422755.3506,40160.16240880471,11.564606494243614,39344.88200385315,8051.01886747531,-8564535897.738043,1333761770.185478
422880.94636666664,40164.485657297824,11.56396914589186,39349.207052617625,8051.447847779312,-8465699514.20257,1353985773.4941149
423006.54213333334,40168.90990344558,11.563333918780842,39353.6307654709,8051.89843491026,-8366852144.638086,1374210880.7942188
423132.1379,40173.438641090506,11.562701490160167,39358.15647079208,8052.371791597288,-8267993537.11832,1394437147.776302
423257.73366666667,40178.075522684194,11.562072597411108,39362.78764390202,8052.86915376063,-8169123431.176657,1414664633.1402466
423383.3294333333,40182.824368106914,11.561448043232929,39367.52791497094,8053.391835873277,-8070241557.427399,1434893398.7856188
423508.9252,40187.68917405997,11.560828701309633,39372.38107741866,8053.941236772357,-7971347637.16657,1455123510.0159898
423634.52096666663,40192.67412407261,11.560215522505645,39377.351096841536,8054.518845962719,-7872441381.950976,1475355035.758447
423760.1167333333,40197.78359916828,11.559609541644534,39382.442120502354,8055.126250459668,-7773522493.154157,1495588048.799582
423885.71249999997,40203.02218923904,11.559011884930735,39387.658487422115,8055.7651422227445,-7674590661.497771,1515822626.039378
424011.30826666666,40208.394705180275,11.558423778081067,39393.0047391154,8056.437326237985,-7575645566.556851,1536058848.764545
424136.9040333333,40213.90619184236,11.55784655524037,39398.48563101395,8057.144729312281,-7476686876.237257,1556296802.9430103
424262.4998,40219.56194186001,11.557281668764086,39404.10614462608,8057.889409650361,-7377714246.223537,1576536579.5414357
424388.0955666666,40225.36751042506,11.556730699960177,39409.87150048296,8058.673567292633,-7278727319.395296,1596778274.8678203
424513.6913333333,40231.32873107339,11.55619537089348,39415.787171926095,8059.499555500782,-7179725725.210018,1617021990.9414563
424639.28709999996,40237.45173256226,11.555677557367678,39421.858899794046,8060.36989318768,-7080709079.050167,1637267835.8927314
424764.88286666665,40243.74295692006,11.55517930321372,39428.09270807,8061.287278499043,-6981676981.532227,1657515924.3955293
424890.47863333335,40250.20917875687,11.554702836028794,39434.49492055583,8062.254603666406,-6882629017.775188,1677766378.1352646
425016.0744,40256.857525930696,11.554250584527363,39441.07217864215,8063.27497126468,-6783564756.625827,1698019326.315903
425141.6701666667,40263.695501671515,11.553825197685203,39447.8314602478,8064.351712022903,-6684483749.837912,1718274906.2096698
425267.2659333333,40270.73100827229,11.553429565879602,39454.78010000631,8065.488404354034,-6585385531.202335,1738533263.7535493
425392.8617,40277.97237246442,11.553066844253745,39461.9258107807,8066.688895789083,-6486269615.62491,1758794554.197108
425518.45746666664,40285.42837260257,11.552740478561656,39469.276706591685,8067.957326522691,-6387135498.148411,1779058942.8066742
425644.05323333334,40293.108267792755,11.55245423378201,39476.84132704781,8069.2981553019,-6287982652.915183,1799326605.631451
425769.649,40301.02182910562,11.552212225825507,39484.6286633689,8070.716187917595,-6188810532.066454,1819597730.3377566
425895.24476666667,40309.17937302578,11.55201895670147,39492.648186096376,8072.216608589316,-6089618564.574204,1839872517.1182745
426020.8405333333,40317.591797296125,11.551879353556144,39500.90987458533,8073.805014569447,-5990406155.001265,1860151179.6839638
426146.4363,40326.27061932472,11.551798812047974,39509.424248373085,8075.487454332487,-5891172682.185026,1880433946.3471556
426272.03206666664,40335.228017328656,11.551783244585328,39518.202400517126,8077.270469760016,-5791917497.839945,1900721061.2053213
426397.62783333333,40344.47687439622,11.551839134020353,39527.25603299127,8079.161142782524,-5692639925.073769,1921012785.4360971
426523.22359999997,40354.030825653484,11.551973593470125,39536.59749422171,8081.167146996383,-5593339256.812218,1941309398.715374
426648.81936666666,40363.904308724,11.552194433024308,39546.239818833776,8083.296804838575,-5494014754.12664,1961611200.771637
426774.4151333333,40374.11261767009,11.552510234198497,39556.196769664326,8085.559150974326,-5394665644.459005,1981918513.0912907
426900.0109,40384.67196059997,11.55293043310583,39566.48288207277,8087.9640026345005,-5295291119.7385,2002231680.791449
427025.60666666663,40395.5995211147,11.553465413448205,39577.11351055385,8090.52203773145,-5195890334.383907,2022551074.678622
427151.2024333333,40406.91352375249,11.554126610574247,39588.10487761554,8093.24488168525,-5096462403.186032,2042877093.5139468
427276.79819999996,40418.633303560906,11.554926628016428,39599.4741248333,8096.145204007945,-4997006399.064527,2063210166.5080755
427402.39396666666,40430.77937988974,11.555879368106293,39611.239365924324,8099.23682582281,-4897521350.693822,2083550756.0716283
427527.9897333333,40443.373534442595,11.557000178477411,39623.41974159818,8102.534839639925,-4798006239.993322,2103899360.8502402
427653.5855,40456.43889355206,11.55830601650249,39636.03547582937,8106.055742869509,-4698459999.477775,2124256519.0767465
427779.1812666667,40470.000014543635,11.559815633976743,39649.107933055726,8109.817586731489,-4598881509.464763,2144622812.2769775
427904.7770333333,40484.08297592256,11.56154978465605,39662.65967562858,8113.840142414049,-4499269595.137713,2164998869.3700404
428030.3728,40498.715470946,11.563531457587693,39676.71452061573,8118.145086545452,-4399623023.464776,2185385371.208868
428155.96856666665,40513.92690392007,11.565786139534408,39691.297594777236,8122.756208271273,-4299940499.976465,2205783055.6122766
428281.56433333334,40529.74848827459,11.568342110188963,39706.43538618246,8127.699640471101,-4200220665.4083414,2226192722.945838
428407.1601,40546.21334510143,11.571230774304755,39722.15579049924,8133.0041179006885,-4100462092.219343,2246615242.3155313
428532.7558666667,40563.35660037594,11.574487035322743,39738.48814944341,8138.701265300768,-4000663281.0019207,2267051558.445474
428658.3516333333,40581.215478490005,11.578149715548276,39755.46327820494,8144.8259187618805,-3900822656.8072,2287502699.3189883
428783.9474,40599.82938898172,11.582262028407875,39773.11347783922,8151.416483860203,-3800938565.4173346,2307969784.6708117
428909.54316666664,40619.24000241376,11.586872108774065,39791.47252759481,8158.515334260132,-3701009269.608418,2328454035.427377
429035.13893333334,40639.49131018848,11.592033607751606,39810.57565090435,8166.169254583603,-3601032945.4613795,2348956784.201538
429160.7347,40660.62966164263,11.597806358622996,39830.459447250105,8174.429931329619,-3501007678.7957516,2369479486.957745
429286.33046666667,40682.70376997909,11.604257120784863,39851.161780279464,8183.354495429363,-3400931461.822861,2390023735.97307
429411.9262333333,40705.76467640118,11.611460408373983,39872.72161033657,8193.006119560112,-3300802190.141689,2410591274.228088
429537.522,40729.865659143186,11.61949940974837,39895.17875693786,8203.454672503907,-3200617660.2333894,2431184011.368704
429663.11776666663,40755.06207085897,11.628467002875382,39918.57357359919,8214.777431477736,-3100375567.6504354,2451804041.384423
429788.7135333333,40781.411083962856,11.63846686974371,39942.94651377752,8227.059851288137,-3000073506.144752,2472453662.1488028
429914.30929999996,40808.97131894264,11.649614709841833,39968.33756249818,8240.39638612612,-2899708968.0374937,2493135396.961826
430039.90506666666,40837.802325340774,11.662039548120108,39994.78550351857,8254.891355502448,-2799279346.2025886,2513852018.2189116
430165.5008333333,40867.96387902886,11.675885126153151,40022.32698671251,8270.659839835675,-2698781938.1181617,2534606573.3036003
430291.0966,40899.51505266743,11.691311355792072,40050.99535493501,8287.828583069548,-2598213952.535382,2555402412.7558465
430416.6923666666,40932.513009064794,11.708495801655875,40080.81918428846,8306.536868854104,-2497572519.4235153,2576243220.6993017
430542.2881333333,40967.01145994377,11.727635141445901,40111.82048703053,8326.937322653663,-2396854703.9722314,2597133047.411393
430667.88389999996,41003.05872611016,11.748946530277916,40144.01252323316,8349.196574002663,-2296057525.564943,2618076343.78026
430793.47966666665,41040.69533031987,11.772668766021575,40177.39716704249,8373.495690442855,-2195177982.774962,2639077997.2018957
430919.07543333335,41079.95105295534,11.799063116200731,40211.96177787389,8400.030267089265,-2094213085.5703082,2660143368.217108
431044.6712,41120.841385345506,11.828413622993352,40247.675538646465,8429.01002340029,-1993159896.0284512,2681278326.858627
431170.2669666667,41163.36332944375,11.86102665184786,40284.485245491924,8460.657722514143,-1892015578.9372063,2702489287.262307
431295.8627333333,41207.4905197627,11.897229393344691,40322.31057023671,8495.207190746414,-1790777463.661268,2723783238.5851636
431421.4585,41253.167688881294,11.93736697175787,40361.03887276065,8532.900179801918,-1689443118.5435934,2745167769.6668663
431547.05426666664,41300.304566767045,11.981797765370292,40400.519719311196,8573.981788951152,-1588010438.8337674,2766651084.184058
431672.65003333334,41348.76940127995,12.030886515562866,40440.559367904985,8618.694159278259,-1486477748.6284463,2788242002.3136406
431798.2458,41398.38241499719,12.084994811886512,40480.91561282142,8667.268181265616,-1384843916.5041323,2809949944.208061
431923.84156666667,41448.90966965357,12.14446861165028,40521.293530894654,8719.913037764576,-1283108483.3580086,2831784889.998907
432049.4373333333,41500.05798380924,12.209622610984054,40561.342828017936,8776.80355525444,-1181271799.4106221,2853757310.737849
432175.0331,41551.47172017387,12.280721554058927,40600.65761843465,8838.065572457177,-1079335165.377432,2875878064.8551035
432300.62886666664,41602.73239071358,12.357958962180547,40638.779542391254,8903.759861892664,-977300970.5802966,2898158255.5947704
432426.22463333333,41653.36207107446,12.441434276759843,40675.20508923344,8973.865542385985,-875172818.456461,2920609046.6979156
432551.82039999997,41702.83151409814,12.531129996359143,40709.39779028204,9048.264355435069,-772955627.8800496,2943241436.5051527
432677.41616666666,41750.573553997085,12.626890959618674,40740.805539330286,9126.727567655098,-670655697.4161098,2966065994.6468573
432803.0119333333,41796.00187302353,12.72840835013771,40768.882683829506,9208.907496654145,-568280719.6268588,2989092570.3458505
432928.6077,41838.53448597006,12.83521111852304,40793.11575914146,9294.335618805208,-465839734.3433514,3012329986.5350447
433054.20346666663,41877.62047649562,12.946667188918065,40813.05093250178,9382.42880891834,-363343013.68720067,3035785738.6538963
433179.7992333333,41912.76775083827,13.06199597258033,40828.320561138076,9472.50445725197,-260801877.46842036,3059465720.113106
433305.39499999996,41943.5690532414,13.180292404292206,40838.66594650944,9563.804087989252,-158228444.78365797,3083373997.0363755
433430.99076666665,41969.72338826787,13.30056114977154,40843.95353437723,9655.523857841843,-55635335.10059051,3107512652.380338
433556.5865333333,41991.05040800627,13.421758120352361,40844.18250858836,9746.849212583922,46964661.53025475,3131881713.896133
433682.1823,42007.496205037554,13.542835321975376,40839.48284977471,9836.99029069371,149558921.54098597,3156479172.357893
433807.7780666667,42019.1301290437,13.662784625000414,40830.104245212286,9925.214563252812,252135307.88176033,3181301087.3862224
433933.3738333333,42026.13345619916,13.780676363678282,40816.39745069113,10010.873709396026,354682451.3712803,3206341769.654009
