t,V,theta,vX,vY,X,Y
150714.91999999998,40000.0,9.500000000000004,39451.424061489255,6601.904234427108,-15071492000.0,0.0
150840.51576666665,40001.39094943432,9.499667723967397,39452.834222051206,6601.905008164759,-14972391603.55847,16583424.475655714
150966.11153333331,40002.80069043371,9.499333260115284,39454.263169926526,6601.907360509002,-14873287641.548342,33166852.83843837
151091.7073,40004.22960172147,9.498996610627122,39455.71127844849,6601.911354975982,-14774180066.314655,49750289.13187323
151217.30306666667,40005.6780721337,9.498657779003803,39457.17893077474,6601.917057645085,-14675068829.252527,66333737.5621816
151342.89883333334,40007.146500954404,9.498316770150787,39458.6665202078,6601.924537273971,-14575953880.782076,82917202.50486037
151468.4946,40008.63529826378,9.497973590470496,39460.17445052805,6601.933865419425,-14476835170.322535,99500688.5115577
151594.09036666667,40010.144885300324,9.497628247960314,39461.703136339616,6601.945116564346,-14377712646.265497,116084200.31725968
151719.68613333334,40011.67569483737,9.497280752316502,39463.25300342988,6601.95836825121,-14278586255.947294,132667742.8478039
151845.2819,40013.22817157475,9.496931115044488,39464.82448914313,6601.9737012224095,-14179455945.62044,149251321.22773674
151970.87766666667,40014.80277254627,9.49657934957585,39466.41804276904,6601.991199567829,-14080321660.42412,165834940.7885319
152096.47343333333,40016.39996754365,9.496225471392489,39468.034125946615,6602.010950880105,-13981183344.353691,182418607.07718906
152222.0692,40018.020239557925,9.495869498158383,39469.6732130844,6602.033046417995,-13882040940.229143,199002325.86523253
152347.66496666666,40019.66408523884,9.495511449859503,39471.33579179757,6602.057581278347,-13782894389.662487,215586103.15813056
152473.26073333333,40021.33201537328,9.495151348952326,39473.02236336279,6602.08465457717,-13683743633.024014,232169945.20515788
152598.8565,40023.02455538366,9.494789220521575,39474.73344319163,6602.114369640342,-13584588609.407406,248753858.50972477
152724.45226666666,40024.742245847025,9.49442509244776,39476.46956132342,6602.146834204541,-13485429256.593616,265337849.84019768
152850.04803333333,40026.485643036125,9.49405899558516,39478.23126293843,6602.182160628996,-13386265511.013496,281921926.24123776
152975.6438,40028.25531948333,9.493690963950963,39480.01910889239,6602.220466118733,-13287097307.709106,298506095.0456852
153101.23956666666,40030.05186456857,9.493321034926272,39481.8336762733,6602.261872959997,-13187924580.293655,315090363.88701934
153226.83533333332,40031.87588513252,9.492949249469797,39483.67555898167,6602.306508768603,-13088747260.910011,331674740.71242577
153352.4311,40033.72800611614,9.49257565234507,39485.54536833522,6602.35450675201,-12989565280.187725,348259233.796504
153478.02686666665,40035.608871228025,9.492200292362106,39487.44373369936,6602.406005985973,-12890378567.19851,364843851.7556514
153603.62263333332,40037.51914364091,9.491823222634473,39489.37130314455,6602.461151706673,-12791187049.410091,381428603.56316054
153729.21839999998,40039.459506718646,9.49144450085283,39491.32874413199,6602.520095619306,-12691990652.638386,398013498.5650707
153854.81416666665,40041.43066477545,9.491064189576104,39493.316744228905,6602.582996224161,-12592789300.997906,414598546.4968157
153980.4099333333,40043.43334386877,9.490682356541402,39495.336011855,6602.650019161315,-12493582916.850348,431183757.50071347
154106.0057,40045.468292627746,9.490299074994123,39497.38727706156,6602.72133757511,-12394371420.751244,447769142.1443455
154231.60146666667,40047.53628311888,9.489914424039533,39499.471292344875,6602.79713249972,-12295154731.394636,464354711.4398776
154357.19723333334,40049.638111750945,9.489528489017388,39501.5888334956,6602.877593267144,-12195932765.555643,480940476.8643763
154482.793,40051.77460022112,9.48914136190119,39503.74070048606,6602.962917939114,-12096705438.030863,497526450.3811793
154608.38876666667,40053.94659650454,9.488753141723864,39505.927718397164,6603.053313764469,-11997472661.576492,514112644.4623816
154733.98453333334,40056.15497588947,9.488363935031654,39508.15073838723,6603.148997663697,-11898234346.84406,530699072.1125041
154859.5803,40058.40064206059,9.487973856368395,39510.41063870459,6603.250196742446,-11798990402.313692,547285746.8934138
154985.17606666667,40060.684528232814,9.487583028792198,39512.708325746404,6603.357148835948,-11699740734.224745,563872682.9505715
155110.77183333333,40063.00759833849,9.487191584427018,39515.04473516601,6603.470103086442,-11600485246.503752,580459895.0406883
155236.3676,40065.37084827068,9.48679966505158,39517.420833031334,6603.589320555847,-11501223840.689512,597047398.5608736
155361.96336666666,40067.77530718566,9.486407422728439,39519.83761703698,6603.715074876087,-11401956415.855196,613635209.5793693
155487.55913333333,40070.22203886776,9.486015020476119,39522.296117772894,6603.847652939674,-11302682868.527353,630223344.8679651
155613.1549,40072.71214315998,9.485622632987523,39524.79740005249,6603.987355633334,-11203403092.601648,646811821.9362023
155738.75066666666,40075.24675746396,9.485230447398099,39527.34256430342,6604.134498617695,-11104116979.255184,663400659.0674747
155864.34643333332,40077.82705831309,9.484838664107476,39529.93274802431,6604.28941315627,-11004824416.855263,679989875.3571491
155989.9422,40080.45426302284,9.484447497658628,39532.56912731093,6604.45244699724,-10905525290.864388,696579490.7528311
156115.53796666666,40083.12963142254,9.484057177678928,39535.252918455604,6604.623965311794,-10806219483.741358,713169526.0969155
156241.13373333332,40085.854467673205,9.483667949887844,39537.98537962363,6604.804351693099,-10706906874.838228,729760003.1715661
156366.7295,40088.6301221762,9.48328007717644,39540.76781261103,6604.994009220305,-10607587340.292986,746350944.7462847
156492.32526666665,40091.45799357778,9.482893840764183,39543.60156468792,6605.193361592295,-10508260752.917688,762942374.6282367
156617.92103333332,40094.33953087507,9.482509541439159,39546.48803053208,6605.402854336341,-10408926982.08186,779534317.7155151
156743.51679999998,40097.27623562914,9.482127500888218,39549.42865425785,6605.622956097181,-10309585893.590935,796126800.0535392
156869.11256666665,40100.269664291256,9.481748063124174,39552.424931545254,6605.854160012528,-10210237349.559454,812719848.8947936
156994.7083333333,40103.32143064883,9.481371596017755,39555.478411875054,6606.096985181495,-10110881208.278805,829313492.7621378
157120.3041,40106.43320839801,9.480998492942751,39558.59070087543,6606.351978232955,-10011517324.079205,845907761.5159227
157245.89986666667,40109.60673385003,9.480629174543452,39561.76346278641,6606.619715001462,-9912145547.185633,862502686.4251784
157371.49563333334,40112.843808779246,9.480264090634295,39564.99842304857,6606.900802318981,-9812765723.567444,879098300.2431515
157497.0914,40116.14630342092,9.479903722242563,39568.2973710228,6607.1958799313725,-9713377694.781301,895694637.2874931
157622.68716666667,40119.51615962766,9.479548583805897,39571.66216284834,6607.505622549361,-9613981297.807114,912291733.5254244
157748.28293333334,40122.95539419348,9.479199225537426,39575.094724446724,6607.830742044518,-9514576364.876612,928889626.664229
157873.8787,40126.466102355684,9.47885623597251,39578.59705467969,6608.171989801736,-9415162723.2942,945488356.2474505
157999.47446666667,40130.05046148462,9.478520244712362,39582.17122866947,6608.5301592406395,-9315740195.24967,962087963.7572027
158125.07023333333,40133.71073497253,9.47819192538117,39585.8194012904,6608.906088519478,-9216308597.62236,978688492.7230352
158250.666,40137.44927633322,9.477871998814896,39589.5438108413,6609.300663436255,-9116867741.776339,995289988.837827
158376.26176666666,40141.26853352483,9.47756123650163,39593.346782908404,6609.714820543125,-9017417433.346111,1011892500.0812266
158501.85753333333,40145.17105350902,9.477260464295181,39597.23073442933,6610.149550491553,-8917957472.012394,1028496076.8511927
158627.4533,40149.15948706022,9.476970566425647,39601.198177968916,6610.605901627281,-8818487651.267408,1045100772.104239
158753.04906666666,40153.23659383995,9.476692489832967,39605.25172621837,6611.084983855884,-8719007758.16917,1061706641.5050355
158878.64483333332,40157.4052477515,9.476427248851863,39609.394096729695,6611.587972801579,-8619517573.08418,1078313743.5860736
159004.2406,40161.66844259158,9.476175930279368,39613.628116897875,6612.116114284033,-8520016869.417934,1094922139.9181604
159129.83636666666,40166.029298016176,9.475939698859056,39617.95672920382,6612.670729140193,-8420505413.332581,1111531895.2925744
159255.43213333332,40170.491065838854,9.475719803219478,39622.382996731634,6613.253218420668,-8320982963.451088,1128143077.915784
159381.0279,40175.05713668086,9.475517582307827,39626.91010897426,6613.86506899295,-8221449270.547189,1144755759.6177082
159506.62366666665,40179.731046992965,9.47533447236402,39631.54138794194,6614.507859586769,-8121904077.220379,1161370016.074586
159632.21943333332,40184.516486470515,9.475172014484711,39636.28029458853,6615.183267320245,-8022347117.555176,1177985927.0476077
159757.81519999998,40189.41730588361,9.475031862831644,39641.13043557087,6615.893074749118,-7922778116.763829,1194603576.6385694
159883.41096666665,40194.43752534565,9.474915793544275,39646.09557035699,6616.639177485395,-7823196790.811622,1211223053.5639198
160009.0067333333,40199.581343044345,9.474825714422426,39651.179618698705,6617.423592436187,-7723602846.023871,1227844451.4486885
160134.6025,40204.853144459914,9.474763675451467,39656.38666848466,6618.248466718378,-7623995978.673695,1244467869.1419241
160260.19826666667,40210.25751209665,9.474731880249724,39661.72098398955,6619.116087310139,-7524375874.549547,1261093411.055408
160385.79403333334,40215.79923575393,9.474732698525962,39667.18701453494,6620.0288915062465,-7424742208.501551,1277721187.5275795
160511.3898,40221.483323363966,9.474768679643653,39672.7894035766,6620.989478250631,-7325094643.965525,1294351315.2147765
160636.98556666667,40227.315012423605,9.474842567398703,39678.53299823254,6622.000620426778,-7225432832.463654,1310983917.5120924
160762.58133333334,40233.29978204789,9.474957316128103,39684.422859264436,6623.065278194482,-7125756413.080658,1327619125.0063622
160888.1771,40239.4433656726,9.475116108279144,39690.46427152366,6624.186613470106,-7026065011.914312,1344257075.964021
161013.77286666667,40245.75176443268,9.475322373582094,39696.662754870864,6625.368005657072,-6926358241.499139,1360897916.856836
161139.36863333333,40252.23126124232,9.475579809984009,39703.024075575,6626.613068743732,-6826635700.202067,1377541802.9287932
161264.9644,40258.88843560077,9.475892406517598,39709.554258194155,6627.925669897316,-6726896971.5888605,1394188898.807725
161390.56016666666,40265.730179145474,9.476264468297005,39716.259597935685,6629.30994969523,-6627141623.760088,1410839379.1656106
161516.15593333333,40272.76371197081,9.476700643852153,39723.146673487354,6630.770344148812,-6527369208.6554575,1427493429.4318423
161641.7517,40279.99659972627,9.477205955035142,39730.22236030398,6632.311608689755,-6427579261.325325,1444151246.5641692
161767.34746666666,40287.436771501845,9.47778582975607,39737.49384432501,6633.938844305913,-6327771299.168277,1460813039.8824673
161892.94323333332,40295.09253850109,9.478446137832103,39744.968636087666,6635.657526031171,-6227944821.133727,1477479031.9709845
162018.539,40302.97261349236,9.479193230262384,39752.654585186945,6637.47353401361,-6128099306.888595,1494149459.65524
162144.13476666666,40311.08613101703,9.480033982273023,39760.559895017606,6639.393187407345,-6028234215.947257,1510824575.0603504
162269.73053333332,40319.4426683181,9.48097584051082,39768.69313771386,6641.423281356247,-5928348986.764168,1527504646.758195
162395.3263,40328.05226693447,9.482026874801837,39777.063269179096,6643.571127362305,-5828443035.788754,1544189961.0115418
162520.92206666665,40336.92545488272,9.48319583493149,39785.67964406966,6645.844597357559,-5728515756.482526,1560880823.1240187
162646.51783333332,40346.07326932072,9.484492212946531,39794.5520305632,6648.252171826336,-5628566518.298701,1577577558.9056475
162772.11359999998,40355.5072795531,9.485926311526118,39803.69062470165,6650.80299235371,-5528594665.62512,1594280516.264573
162897.70936666665,40365.23961019739,9.487509319018875,39813.106064051084,6653.506919006503,-5428599516.6918125,1610990066.9365926
163023.30513333334,40375.28296427932,9.489253391795355,39822.80944036342,6656.374592984248,-5328580362.445288,1627706608.3651567
163148.9009,40385.65064596582,9.491171744619779,39832.81231085726,6659.4175050088015,-5228536465.392492,1644430565.7456477
163274.49666666667,40396.35658257161,9.493278749800906,39843.12670765488,6662.6480699519525,-5128467058.418426,1661162394.248957
163400.09243333334,40407.415345388355,9.495590045937952,39853.7651448174,6666.079708229138,-5028371343.582689,1677902581.4406798
163525.6882,40418.84216878176,9.498122657132145,39864.74062230838,6669.726934512895,-4928248490.90176,1694651649.9136028
163651.28396666667,40430.652966878064,9.500895123585584,39876.066626084525,6673.605454339777,-4828097637.125624,1711410160.1525784
163776.87973333334,40442.86434701473,9.503927644553285,39887.75712335761,6677.732269196581,-4727917884.519594,1728178713.652349
163902.4755,40455.49361895611,9.507242234648004,39899.82655189155,6682.125790672354,-4627708299.664748,1744957956.3103578
164028.07126666667,40468.558798669306,9.510862894514972,39912.28980198783,6686.805964247336,-4527467912.29352,1761748582.118053
164153.66703333333,40482.07860521443,9.514815796888412,39925.1621895685,6691.794403253115,-4427195714.1806345,1778551337.1755931
164279.2628,40496.072449020416,9.519129489004602,39938.4594184836,6697.114533472522,-4326890658.113926,1795367024.0561442
164404.85856666666,40510.560409488404,9.523835112266116,39952.19752984528,6702.791748744247,-4226551656.974635,1812196506.5470314
164530.45433333333,40525.56319948263,9.528966639914238,39966.392835820334,6708.853577784354,-4126177582.9627647,1829040714.7957659
164656.0501,40541.10211382908,9.534561133253428,39981.06183489227,6715.329862221009,-4025767267.0099936,1845900650.8892808
164781.64586666666,40557.19895843952,9.540659016660792,39996.22110513184,6722.252945542438,-3925319498.4307365,1862777394.8943744
164907.24163333332,40573.875956108874,9.547304371177082,40011.88717148979,6729.657872260703,-3824833024.871252,1879672111.3861873
165032.8374,40591.15562439617,9.554545245880274,40028.07634255088,6737.582596070166,-3724306552.6274,1896586056.4892125
165158.43316666665,40609.06062029401,9.562433985447921,40044.80451156898,6746.068195099901,-3623738747.413871,1913520585.4515243
165284.02893333332,40627.61354562639,9.571027571272156,40062.086915953805,6755.1590914890685,-3523128235.681508,1930477160.76718
165409.6247,40646.836706302325,9.580387972145926,40079.937848719484,6764.903271414082,-3422473606.594836,1947457360.853559
165535.22046666665,40666.751817718345,9.590582498827317,40098.370314768115,6775.352500322137,-3321773414.799017,1964462889.2791436
165660.81623333332,40687.37964778312,9.60168415464072,40117.39562431346,6786.562526430528,-3221026184.124148,1981495584.5221539
165786.41199999998,40708.7395882904,9.613771971615357,40137.022915319794,6798.593263487378,-3120230412.3947916,1998557430.220676
165912.00776666665,40730.84914477175,9.626931318419599,40157.25859662946,6811.508941312743,-3019384577.533461,2015650565.8494554
166037.60353333334,40753.72333463006,9.641254162458914,40178.105703603214,6825.378209715413,-2918487145.167781,2032777297.7263172
166163.1993,40777.37398343788,9.65683926391972,40199.56315875846,6840.2741779950675,-2817536577.9711246,2049940110.211022
166288.79506666667,40801.80890997339,9.673792274252719,40221.62493126138,6856.274368410049,-2716531346.9842067,2067141676.910137
166414.39083333334,40827.030992104825,9.692225705647013,40244.27909145395,6873.460557786759,-2615469945.1782894,2084384871.642121
166539.9866,40853.03710831449,9.712258731592376,40267.50676016021,6891.918477011508,-2514350903.5266685,2101672778.8464696
166665.58236666667,40879.816953818045,9.734016771931449,40291.28095763701,6911.737333726321,-2413172809.8463893,2119008703.0390978
166791.17813333333,40907.35173625791,9.757630809312504,40315.56536404309,6933.009119530437,-2311934330.6524086,2136396176.8235886
166916.7739,40935.61276421041,9.783236378338506,40340.31301250441,6955.82765992329,-2210634236.226505,2153838966.866074
167042.36966666667,40964.55995257817,9.810972164914178,40365.46494747951,6980.287363867954,-2109271429.0372567,2171341077.133559
167167.96543333333,40994.14028255478,9.840978152573147,40390.94889523801,7006.481631179191,-2007844975.549099,2188906748.58682
167293.5612,41024.286270232544,9.873393256484752,40416.67800964622,7034.500881126532,-1906354141.3215938,2206540454.4177146
167419.15696666666,41054.914516696466,9.908352396217312,40442.54977448145,7064.4301760187645,-1804798429.1194458,2224246889.8381176
167544.75273333333,41085.92443270827,9.945982977115065,40468.44516199222,7096.346430455805,-1703177619.5263608,2242030955.3785233
167670.3485,41117.19725125209,9.986400779144214,40494.22816451141,7130.315221563683,-1601491813.2823112,2259897732.656732
167795.94426666666,41148.59545890873,10.029705292576583,40519.7458289776,7166.387248535792,-1499741474.2504914,2277852451.6516147
167921.54003333332,41179.96278904302,10.075974592163838,40544.8289298593,7204.594530951192,-1397927471.5811546,2295900448.685135
168047.1358,41211.124922240204,10.125259904107985,40569.29341034323,7244.946483030045,-1296051119.2979102,2314047114.5971065
168172.73156666665,41241.891028119644,10.177580089481742,40592.942700847874,7287.426051835937,-1194114211.2212744,2332297833.0049405
168298.32733333332,41272.05625375682,10.232916337415224,40615.57098479595,7331.986156033611,-1092119048.907148,2350657909.0773854
168423.92309999999,41301.40521493075,10.29120742222763,40636.967422677146,7378.546700820267,-990068460.1636797,2369132489.9031973
168549.51886666665,41329.716477163114,10.352345919507487,40656.921268108155,7426.992465429253,-887965805.7687681,2387726478.2683983
168675.11463333332,41356.767927347224,10.416175785005525,40675.22771889392,7477.172153466806,-785814972.2847056,2406444442.4121227
168800.71039999998,41382.34284106191,10.482491666717989,40691.694251109766,7528.8988563659495,-683620349.3809388,2425290525.032931
168926.30616666665,41406.23635670627,10.551040238605864,40706.14709757469,7581.952103385759,-581386790.8273568,2444268355.372966
169051.90193333334,41428.26198933192,10.621523714841214,40718.437468266384,7636.081560565227,-479119559.2702988,2463380968.523118
169177.4977,41448.25776881946,10.69360553574476,40728.44708296415,7691.012305327007,-376824255.9755311,2482630736.0901012
169303.09346666667,41466.091580524364,10.76691802871825,40736.09260547091,7746.451458760441,-274506737.80919296,2502019312.000331
169428.68923333334,41481.6653277063,10.841071663868375,40741.32863709722,7802.0958238074,-172173024.70399314,2521547596.486467
169554.285,41494.91762215471,10.91566537114433,40744.14903913786,7857.640074852428,-69829201.60139906,2541215720.2642465
169679.88076666667,41505.8248324,10.990297286869993,40744.58649608052,7912.784988945774,32518680.72606486,2561023049.6621394
169805.47653333333,41514.40046107957,11.064575267423917,40742.7103836833,7967.245209869501,134864701.53826278,2580968212.1504517
169931.0723,41520.692964401875,11.138126549808634,40738.62314739217,8020.756092719305,237203158.59473142,2601049140.476335
170056.66806666667,41524.7822479956,11.210606044184509,40732.455507931736,8073.079278553658,339528645.8239081,2621263132.5789084
170182.26383333333,41526.77516009238,11.281702893629337,40724.36087958066,8124.0067790805015,441836117.7041145,2641606923.7303643
170307.8596,41526.80034732715,11.351145107604085,40714.509408061625,8173.363490487398,544120938.8911458,2662076766.9718614
