t,V,theta,vX,vY,X,Y
226072.38,40000.0,10.100000000000007,39380.12719897746,7014.669043679488,-15071492000.0,0.0
226197.97576666667,40001.388418819624,10.099646813921925,39381.53734271654,7014.669768242795,-14972570695.240631,17620254.729077175
226323.57153333334,40002.79556111008,10.099291026739408,39382.96623976889,7014.671971032716,-14873645824.99718,35240513.098237716
226449.1673,40004.221804166315,10.09893262936095,39384.4142627582,7014.675711419907,-14774717341.700981,52860778.89375845
226574.76306666667,40005.66753537436,10.098571613625593,39385.881794131266,7014.681051168719,-14675785196.83523,70481056.05399086
226700.35883333333,40007.13315254689,10.098207972374157,39387.369226479765,7014.688054544625,-14576849340.909914,88101348.67550543
226825.9546,40008.61906427207,10.097841699525041,39388.8769628745,7014.696788427079,-14477909723.435917,105721661.01951249
226951.55036666666,40010.12569027641,10.097472790154757,39390.40541721283,7014.707322428108,-14378966292.898264,123341997.51857358
227077.14613333333,40011.65346180206,10.097101240583637,39391.95501457978,7014.719729016967,-14280018996.728489,140962362.78361806
227202.7419,40013.202821999424,10.096727048466942,39393.526191623474,7014.734083651217,-14181067781.276064,158582761.6112807
227328.33766666666,40014.7742263357,10.096350212891801,39395.119396945614,7014.7504649145685,-14082112591.778873,176203198.99157694
227453.93343333332,40016.368143020096,10.095970734480309,39396.73509150758,7014.768954661916,-13983153372.332693,193823680.1159328
227579.5292,40017.985053446544,10.095588615499219,39398.373749052975,7014.789638171956,-13884190065.859615,211444210.38558874
227705.12496666666,40019.62545265477,10.095203859976653,39400.03585654736,7014.812604307848,-13785222614.075407,229064795.42039663
227830.72073333332,40021.289849810484,10.094816473826299,39401.72191463594,7014.8379456863995,-13686250957.455729,246685441.0680304
227956.3165,40022.97876870573,10.0944264649796,39403.43243812011,7014.865758856257,-13587275035.201187,264306153.413633
228081.91226666665,40024.692748280344,10.094033843526434,39405.1679564537,7014.896144485675,-13488294785.201172,281926938.7899224
228207.50803333332,40026.43234316548,10.093638621864924,39406.929014259906,7014.929207560409,-13389310143.996403,299547803.78778183
228333.10379999998,40028.19812425036,10.093240814860918,39408.71617186987,7014.965057592372,-13290321046.740175,317168755.2673601
228458.69956666665,40029.99067927339,10.092840440017852,39410.53000588394,7015.003808839693,-13191327427.1582,334789800.36970955
228584.2953333333,40031.810613438756,10.092437517657675,39412.371109756765,7015.045580538882,-13092329217.507027,352410946.5289924
228709.89109999998,40033.65855005994,10.092032071113595,39414.240094407316,7015.090497149856,-12993326348.530956,370032201.4852852
228835.48686666667,40035.53513123131,10.091624126935479,39416.137588855134,7015.138688614617,-12894318749.417381,387653573.2980157
228961.08263333334,40037.44101852932,10.09121371510874,39418.06424088401,7015.190290630443,-12795306347.750515,405275070.36006707
229086.6784,40039.37689374487,10.090800869287717,39420.02071773454,7015.245444938496,-12696289069.463392,422896701.41258717
229212.27416666667,40041.343459648226,10.09038562704448,39422.007706826946,7015.304299628843,-12597266838.788124,440518475.56054276
229337.86993333334,40043.34144078841,10.089968030134203,39424.025916515704,7015.367009462921,-12498239578.204266,458140402.28906107
229463.4657,40045.371584328626,10.089548124778256,39426.07607687756,7015.433736214567,-12399207208.38527,475762491.4806042
229589.06146666667,40047.434660919724,10.089125961966255,39428.15894053463,7015.504649030833,-12300169648.142912,493384753.4330237
229714.65723333333,40049.53146561372,10.08870159777845,39430.27528351447,7015.579924813852,-12201126814.369602,511007198.8785478
229840.253,40051.662818819335,10.088275093729901,39432.42590614881,7015.659748625147,-12102078621.978483,528629839.0037545
229965.84876666666,40053.829567301895,10.087846517137997,39434.61163401316,7015.744314113864,-12003024983.841232,546252685.4705898
230091.44453333333,40056.032585229914,10.087415941515046,39436.83331890927,7015.833823970522,-11903965810.723438,563875750.4384921
230217.0403,40058.272775270896,10.08698344698772,39439.0918398927,7015.9284904079805,-11804901011.217474,581499046.5876902
230342.63606666666,40060.55106973893,10.086549120745353,39441.388104348014,7016.028535671468,-11705830491.672703,599122587.1437441
230468.23183333332,40062.86843179698,10.08611305751924,39443.72304911379,7016.134192579636,-11606754156.12295,616746385.903405
230593.8276,40065.22585671679,10.085675360095173,39446.09764166045,7016.245705098772,-11507671906.21106,634370457.2618743
230719.42336666666,40067.62437319954,10.085236139861767,39448.51288132349,7016.3633289524405,-11408583641.110449,651994816.2415485
230845.01913333332,40070.065044760784,10.084795517397218,39450.96980059512,7016.487332269018,-11309489257.443472,669619478.522341
230970.6149,40072.5489711829,10.084353623097417,39453.46946647753,7016.6179962697715,-11210388649.196478,687244460.4736798
231096.21066666665,40075.07729003921,10.083910597848545,39456.012981901054,7016.755616000318,-11111281707.631384,704869779.1882863
231221.80643333332,40077.65117829352,10.083466593747561,39458.6014872108,7016.900501108556,-11012168321.193605,722495452.5178478
231347.40219999998,40080.27185397941,10.083021774874288,39461.236161725436,7017.052976672382,-10913048375.416157,740121499.1107042
231472.99796666665,40082.94057796389,10.082576318119056,39463.918225372174,7017.21338408076,-10813921752.819754,757747938.451679
231598.5937333333,40085.65865580014,10.082130414070242,39466.64894040211,7017.382081972026,-10714788332.808706,775374790.9041928
231724.18949999998,40088.427439674495,10.081684267966432,39469.42961319038,7017.5594472335915,-10615647991.562395,793002077.7548072
231849.78526666667,40091.24833045309,10.081238100718252,39472.261596125885,7017.745876067569,-10516500601.92212,810629821.2603613
231975.38103333334,40094.122779834026,10.080792150005472,39475.14628959558,7017.94178512719,-10417346033.273088,828258044.6978691
232100.9768,40097.052292611144,10.080346671455311,39478.08514406866,7018.147612729314,-10318184151.421295,845886772.4173647
232226.57256666667,40100.038429056,10.079901939908593,39481.07966228628,7018.3638201487365,-10219014818.465038,863516029.897892
232352.16833333333,40103.08280742502,10.079458250780739,39484.13140156281,7018.590893000503,-10119837892.660793,881145843.8068517
232477.7641,40106.187106599195,10.079015921525464,39487.24197620491,7018.829342716935,-10020653228.283173,898776242.0629354
232603.35986666667,40109.3530688644,10.078575293209509,39490.4130600553,7019.079708126671,-9921460675.47865,916407253.902893
232728.95563333333,40112.58250284052,10.07813673220764,39493.64638916822,7019.342557143614,-9822260080.112732,934038909.9523998
232854.5514,40115.87728656853,10.077700632027913,39496.943764624244,7019.618488574375,-9723051283.610254,951671242.3013095
232980.14716666666,40119.23937076503,10.077267415278142,39500.307055492514,7019.908134053547,-9623834122.788403,969304284.5836002
233105.74293333333,40122.670782254354,10.07683753578544,39503.73820194886,7020.212160116939,-9524608429.682121,986938072.0623504
233231.3387,40126.17362758921,10.076411480881916,39507.23921855888,7020.531270423813,-9425374031.36148,1004572641.7201018
233356.93446666666,40129.750096871256,10.075989773870672,39510.812197735635,7020.86620814011,-9326130749.74059,1022208032.3549979
233482.53023333332,40133.402467784064,10.075572976687724,39514.45931338198,7021.217758495758,-9226878401.37759,1039844284.6831198
233608.126,40137.13310985144,10.075161692776772,39518.18282472851,7021.586751530294,-9127616797.26527,1057481441.4474734
233733.72176666665,40140.94448893517,10.074756570195515,39521.985080378334,7021.974065042336,-9028345742.61178,1075119547.534118
233859.31753333332,40144.83917198699,10.074358304973822,39525.86852257094,7022.380627759854,-8929065036.610924,1092758650.0959709
233984.9133,40148.8198320707,10.073967644746176,39529.83569167781,7022.807422749736,-8829774472.201454,1110398798.6848638
234110.50906666665,40152.889253671136,10.073585392682844,39533.889230943336,7023.255491086858,-8730473835.814777,1128040045.3924754
234236.10483333332,40157.050338308174,10.07321241174666,39538.03189148545,7023.725935804734,-8631162907.110437,1145682445.0008209
234361.70059999998,40161.306110474645,10.072849629304967,39542.26653757089,7024.219926151922,-8531841458.6986885,1163326055.143033
234487.29636666665,40165.659723918616,10.072498042129137,39546.59615218109,7024.738702180589,-8432509255.849482,1180970936.4752338
234612.8921333333,40170.11446829156,10.0721587218173,39551.02384288551,7025.283579696199,-8333166056.187079,1198617152.860368
234738.48789999998,40174.673776185446,10.071832820679488,39555.552848039966,7025.85595560002,-8233811609.36953,1216264771.5649414
234864.08366666667,40179.34123058303,10.071521578128397,39560.18654332856,7026.457313659219,-8134445656.752143,1233913863.469694
234989.67943333334,40184.12057274713,10.071226327623242,39564.92844866852,7027.089230742668,-8035067931.0341015,1251564503.2953267
235115.2752,40189.015710576525,10.070948504219093,39569.78223549843,7027.753383564323,-7935678155.88725,1269216769.844502
235240.87096666667,40194.03072745709,10.070689652779434,39574.751734470876,7028.451555980116,-7836276045.566083,1286870746.2614474
235366.46673333333,40199.16989163906,10.070451436915679,39579.84094357166,7029.18564688889,-7736861304.497895,1304526520.3106158
235492.0625,40204.437666172664,10.070235648723916,39585.054036688445,7029.95767879287,-7637433626.851979,1322184184.675981
235617.65826666667,40209.83871943606,10.070044219396618,39590.3953726523,7030.769807078759,-7537992696.086723,1339843837.282704
235743.25403333333,40215.37793629149,10.069879230795097,39595.86950477654,7031.624330086676,-7438538184.473391,1357505581.6430573
235868.8498,40221.06042990691,10.0697429280777,39601.48119091742,7032.523700040947,-7339069752.595295,1375169527.2286732
235994.44556666666,40226.891554282454,10.069637733488687,39607.235404081825,7033.470534924288,-7239587048.821036,1392835789.8713832
236120.04133333333,40232.87691752217,10.069566261424074,39613.13734360712,7034.467631385251,-7140089708.750383,1410504492.1951222
236245.6371,40239.02239589351,10.069531334903132,39619.192446938025,7035.517978778019,-7040577354.631345,1428175764.0816104
236371.23286666666,40245.33414871778,10.069536003588212,39625.40640202486,7036.624774443853,-6941049594.746888,1445849743.172792
236496.82863333332,40251.81863413616,10.069583563510871,39631.785160366664,7037.791440354793,-6841506022.769723,1463526575.413288
236622.4244,40258.48262579637,10.069677578679677,39638.33495072067,7039.021641252725,-6741946217.083493,1481206415.6364508
236748.02016666665,40265.33323050558,10.069821904763982,39645.062293497744,7040.31930443078,-6642369740.0686865,1498889428.197944
236873.61593333332,40272.37790689421,10.070020715069466,39651.97401585973,7041.688641319333,-6542776137.351508,1516575787.6611753
236999.21169999999,40279.624485134795,10.070278529044726,39659.07726753078,7043.134171055811,-6443164937.01394,1534265679.5393221
237124.80746666665,40287.08118775772,10.07060024358462,39666.379537328845,7044.660746236207,-6343535648.763184,1551959301.0991733
237250.40323333332,40294.75665160206,10.070991167425282,39673.88867041631,7046.2735810668555,-6243887763.058667,1569656862.2325265
237375.99899999998,40302.65995093563,10.071457058958135,39681.61288625985,7047.978282157744,-6144220750.194826,1587358586.4014602
237501.59476666665,40310.80062177096,10.072004167826297,39689.56079727771,7049.780882223699,-6044534059.33788,1605064711.6644313
237627.1905333333,40319.1886873954,10.072639280706506,39697.741428138506,7051.687876987274,-5944827117.514932,1622775491.790856
237752.78629999998,40327.8346851216,10.073369771723884,39706.16423565778,7053.706265607294,-5845099328.553794,1640491197.4726014
237878.38206666667,40336.74969424908,10.074203657995424,39714.83912921645,7055.843594990002,-5745350071.972131,1658212117.6416726
238003.97783333334,40345.945365208434,10.075149660851599,39723.776491598685,7058.108008375577,-5645578701.814703,1675938560.904316
238129.5736,40355.4339498342,10.07621727334434,39732.98720011349,7060.508298631781,-5545784545.437825,1693670857.1027956
238255.16936666667,40365.22833268205,10.077416834713885,39742.48264782459,7063.0539667284675,-5445966902.2404995,1711409359.0172367
238380.76513333333,40375.34206326617,10.078759612556961,39752.27476466424,7065.755285911746,-5346125042.3422165,1729154444.2211676
238506.3609,40385.78938904532,10.080257893514709,39762.37603814814,7068.623372144544,-5246258205.208019,1746906517.1057622
238631.95666666667,40396.58528892563,10.08192508338017,39772.799533337326,7071.6702614307815,-5146365598.222236,1764666011.0892642
238757.55243333333,40407.74550697587,10.083775817612388,39783.55891160748,7074.908994692856,-5046446395.213254,1782433391.029693
238883.1482,40419.28658596076,10.085826083335839,39794.66844768343,7078.3537109257995,-4946499734.932962,1800209155.860678
239008.74396666666,40431.225900189056,10.088093353999614,39806.14304427341,7082.0197494049635,-4846524719.49595,1817993841.4721558
239134.33973333333,40443.581687040314,10.090596737968378,39817.9982434904,7085.92376177576,-4746520412.785421,1835788023.8596778
239259.9355,40456.37307637373,10.093357142414295,39830.25023407221,7090.083834901238,-4646485838.835023,1853592322.568227
239385.53126666666,40469.62011682812,10.096397453972303,39842.915853203274,7094.519625382847,-4546419980.1984825,1871407404.4586923
239511.12703333332,40483.34379778891,10.099742737705323,39856.01258149303,7099.252506696999,-4446321776.322281,1889233987.827494
239636.7228,40497.56606551788,10.103420455994243,39869.558529373106,7104.305729899131,-4346190121.940525,1907072846.912247
239762.31856666665,40512.309831606704,10.107460709011006,39883.57241283026,7109.704598829849,-4246023865.515955,1924924816.8187368
239887.91433333332,40527.59897151758,10.111896498439291,39898.07351598727,7115.476660704353,-4145821807.756728,1942790798.9067893
240013.51009999998,40543.458310502145,10.116764016060314,39913.081637571355,7121.651912863332,-4045582700.245417,1960671766.6747344
240139.10586666665,40559.91359363438,10.122102958700328,39928.617017761266,7128.263026294157,-3945305244.2247267,1978568772.1839576
240264.70163333332,40576.99143604184,10.12795687081452,39944.70024127171,7135.345586274042,-3844988089.5939994,1996482953.0662973
240390.29739999998,40594.719248661946,10.134373515625164,39961.352111810986,7142.938350115057,-3744629834.1818185,2014415540.1575458
240515.89316666665,40613.12513397592,10.141405275196586,39978.59349222945,7151.08352147113,-3644229023.3732185,2032367865.7997148
240641.4889333333,40632.237745174825,10.14910957906207,39996.44510376253,7159.827039958425,-3543784150.1853557,2050341372.8526073
240767.08469999998,40652.0861010862,10.157549359951593,40014.9272767671,7169.21888389288,-3443293655.9032865,2068337624.4510872
240892.68046666667,40672.69934794011,10.166793533723167,40034.05964426882,7179.313382702754,-3342755931.4078965,2086358314.5375543
241018.27623333334,40694.10645769455,10.176917498678412,40053.86076850883,7190.169533959985,-3242169319.351246,2104405279.1887197
241143.872,40716.33585120315,10.188003646931021,40074.347689546485,7201.851317912033,-3141532117.360665,2122480508.7407947
241269.46776666667,40739.414933047316,10.200141877267127,40095.53538391446,7214.427999797508,-3040842582.48184,2140586160.69642
241395.06353333333,40763.3695234565,10.213430094847538,40117.43612044024,7227.9744070008355,-2940098937.102537,2158724573.368636
241520.6593,40788.2231715349,10.227974678007712,40140.058699796726,7242.571164152236,-2839299376.6319313,2176898280.1801925
241646.25506666666,40813.99633318588,10.243890886172924,40163.407564334404,7258.304864531144,-2738442079.2446985,2195110024.48862
241771.85083333333,40840.705396935715,10.261303175413099,40187.48176555833,7275.268150536458,-2637525218.032397,2213362774.7466397
241897.4466,40868.361541649996,10.280345379363073,40212.27377860715,7293.559669555063,-2536546975.9347796,2231659739.731508
242023.04236666666,40896.9694123551,10.301160703185138,40237.76815671955,7313.283864393289,-2435505563.8470345,2250004383.4837136
242148.63813333333,40926.525604575116,10.32390146717443,40263.94002447708,7334.550549778437,-2334399242.3108287,2268400439.4834857
242274.2339,40957.016954429004,10.34872852497805,40290.75341720503,7357.474218736107,-2233226347.1912394,2286851923.461908
242399.82966666666,40988.418641934775,10.375810270038224,40318.15948594228,7382.173015625503,-2131985319.710369,2305363144.0927815
242525.42543333332,41020.69212928847,10.40532113406107,40346.09460346231,7408.767307341943,-2030674741.1422048,2323938710.6444464
242651.0212,41053.78297498721,10.437439474905062,40374.478427376795,7437.377782164591,-1929293372.3612604,2342583536.493603
242776.61696666665,41087.61858895042,10.472344750768606,40403.21200146421,7468.123008882617,-1827840198.2680774,2361302837.22607
242902.21273333332,41122.10602316925,10.510213886068847,40432.176005519475,7501.116399541351,-1726314476.8764699,2380102121.888067
243027.80849999998,41157.12992597801,10.551216755586138,40461.22929578619,7536.46254005478,-1624715792.5314846,2398987175.828322
243153.40426666665,41192.55082373003,10.595510751105143,40490.20790975048,7574.252886639123,-1523044112.3292675,2417964033.5149784
243279.00003333332,41228.20392790695,10.643234452254056,40518.92473657783,7614.560874575981,-1421299844.3347707,2437038939.7573085
243404.59579999998,41263.89869321063,10.694500502448275,40547.17007199678,7657.436549924427,-1319483895.657289,2456218297.9498734
243530.19156666665,41299.41936603883,10.74938789103432,40574.713276843904,7702.9009128931375,-1217597727.8805242,2475508604.324873
243655.7873333333,41334.52675485737,10.807933959091702,40601.3057340246,7750.940248787933,-1115643406.8058732,2494916367.778361
243781.3831,41368.961416296275,10.870126568801599,40626.685242303545,7801.500809831714,-1013623643.027222,2514448015.642235
243906.97886666667,41402.448377111745,10.935896988958753,40650.58189284837,7854.48428556776,-911541819.6005745,2534109786.7928185
244032.57463333334,41434.70340046541,11.00511413119321,40672.725346648745,7909.744544586557,-809402003.0960857,2553907614.6669216
244158.1704,41465.44065987982,11.077580799438532,40692.85327593841,7967.086128627144,-707208934.7071698,2573847004.001412
244283.76616666667,41494.38151862625,11.15303256784766,40710.72056709375,8026.264917215361,-604967998.894259,2593932906.2838936
244409.36193333333,41521.26394739574,11.231139766384477,40726.108730313455,8086.991249901987,-502685168.26010674,2614169599.8313093
244534.9577,41545.85197604131,11.31151282924424,40738.83485110076,8148.935598584272,-400366924.92090917,2634560580.926216
244660.55346666666,41567.94449411405,11.393710967414583,40748.759377061484,8211.736643127932,-298020160.410878,2655108472.392169
244786.14923333333,41587.38271234483,11.477253799145302,40755.79207914927,8275.011351302834,-195652057.93380678,2675814955.300553
244911.745,41604.05568337153,11.56163525945102,40759.89566280895,8338.366438458266,-93269962.31935745,2696680728.1858587
245037.34076666666,41617.90344849926,11.646338863400505,40761.086717159415,8401.410422352734,9118755.867146494,2717705496.3239837
245162.93653333333,41628.91760494236,11.73085326010804,40759.43394874657,8463.765423075345,111506835.13696735,2738887991.5089273
245288.5323,41637.13933939306,11.814687007777996,40755.05390980849,8525.077898567093,213887250.09483394,2760226020.611902
245414.12806666666,41642.65520924192,11.897381622619815,40748.104658096454,8585.027644021988,316253324.7907165,2781716539.2914705
