t,V,theta,vX,vY,X,Y
113036.19,40000.0,9.200000000000001,39485.45060291952,6395.247507673396,-15071492000.0,0.0
113161.78576666667,40001.39215682196,9.199678193211602,39486.86077150294,6395.248306031543,-14972306131.767311,16064320.27498659
113287.38153333333,40002.80313697317,9.199354406183257,39488.28974359645,6395.250733255571,-14873116697.925726,32128644.560789313
113412.9773,40004.233319797975,9.199028646769868,39489.73789284001,6395.254854939762,-14773923650.779213,48192977.02973841
113538.57306666666,40005.68309476008,9.19870092433832,39491.20560269591,6395.260739326568,-14674726941.681047,64257322.02218458
113664.16883333333,40007.15286177721,9.19837124986258,39492.69326676857,6395.2684574254545,-14575526521.00875,80321684.05329657
113789.7646,40008.64303156881,9.19803963602443,39494.20128913658,6395.278083137738,-14476322338.138197,96386067.82016459
113915.36036666666,40010.154026017626,9.19770609732019,39495.730084697796,6395.289693387762,-14377114341.416882,112450478.20922513
114040.95613333333,40011.68627854551,9.197370650173813,39497.28007952775,6395.303368260769,-14277902478.136303,128514920.3040233
114166.55189999999,40013.24023450439,9.197033313056757,39498.851711252275,6395.319191147853,-14178686694.503428,144579399.39333022
114292.14766666666,40014.81635158283,9.196694106615013,39500.44542943476,6395.337248898394,-14079466935.611195,160643920.97963372
114417.74343333334,40016.41510022914,9.196353053803845,39502.06169597882,6395.357631980414,-13980243145.408041,176708490.7880216
114543.3392,40018.03696409164,9.196010180030603,39503.70098554703,6395.380434649312,-13881015266.66638,192773114.77547765
114668.93496666667,40019.682440476936,9.195665513306233,39505.36378599653,6395.405755125463,-13781783240.95002,208837799.1406128
114794.53073333333,40021.35204082713,9.195319084405984,39507.05059883215,6395.433695781219,-13682547008.580467,224902550.33385345
114920.1265,40023.046291216684,9.194970927039947,39508.761939678,6395.464363337848,-13583306508.602055,240967375.06811184
115045.72226666666,40024.765732870066,9.19462107803399,39510.4983387683,6395.497869073012,-13484061678.74588,257032280.32996395
115171.31803333333,40026.510922701076,9.194269577521887,39512.26034145841,6395.534329039428,-13384812455.39247,273097273.3913622
115296.9138,40028.282433874825,9.193916469149238,39514.04850875691,6395.57386429536,-13285558773.533146,289162361.82191163
115422.50956666666,40030.08085639366,9.193561800290079,39515.86341787989,6395.616601147691,-13186300566.730022,305227553.501741
115548.10533333333,40031.906797707976,9.193205622276917,39517.7056628283,6395.662671408311,-13087037767.074589,321292856.6349998
115673.70109999999,40033.760883353316,9.192847990645186,39519.575854989664,6395.712212664675,-12987770305.144798,337358279.7640173
115799.29686666666,40035.64375761492,9.192488965393002,39521.47462376512,6395.765368565365,-12888498109.960632,353423831.78415906
115924.89263333334,40037.55608422115,9.192128611257274,39523.40261722324,6395.822289121638,-12789221108.93804,369489521.95942056
116050.4884,40039.498547067225,9.191766998007326,39525.36050278171,6395.883131025915,-12689939227.841213,385555359.93879855
116176.08416666667,40041.47185097074,9.19140420075712,39527.34896791837,6395.948057988312,-12590652390.73311,401621355.7734846
116301.67993333333,40043.47672246058,9.19104030029746,39529.36872091296,6396.017241092344,-12491360519.92415,417687519.93492734
116427.2757,40045.51391060099,9.190675383449472,39531.42049162117,6396.090859171026,-12392063535.919012,433753863.3338131
116552.87146666666,40047.58418785241,9.19030954344086,39533.5050322825,6396.169099204683,-12292761357.361446,449820397.34001714
116678.46723333333,40049.6883509712,9.18994288030652,39535.623118363685,6396.252156741882,-12193453900.977009,465887133.80358326
116804.063,40051.82722194997,9.189575501315211,39537.77554943939,6396.340236344969,-12094141081.513634,481954085.0767898
116929.65876666666,40054.001649000886,9.189207521424121,39539.963150112104,6396.433552061857,-11994822811.67995,498021264.037367
117055.25453333333,40056.21250758393,9.18883906376328,39542.186770973145,6396.532327925767,-11895499002.08123,514088684.1129337
117180.85029999999,40058.460701482676,9.188470260151952,39544.44728960694,6396.636798484794,-11796169561.152874,530156359.30672514
117306.44606666666,40060.7471639299,9.188101251649327,39546.74561164067,6396.747209363289,-11696834395.09132,546224304.2246901
117432.04183333334,40063.07285878576,9.187732189141895,39549.08267184165,6396.8638178572,-11597493407.78225,562292534.1040388
117557.6376,40065.43878177125,9.187363233970258,39551.459435264944,6396.986893565677,-11498146500.725986,578361064.8433315
117683.23336666667,40067.84596175994,9.186994558598165,39553.87689845367,6397.116719061401,-11398793572.959942,594429913.0341989
117808.82913333333,40070.29546213106,9.186626347326909,39556.33609069483,6397.253590602321,-11299434520.977976,610499095.9947982
117934.4249,40072.788382187246,9.186258797058413,39558.838075333464,6397.397818887641,-11200069238.646534,626568631.8051102
118060.02066666666,40075.32585864044,9.185892118110614,39561.38395114823,6397.549729861152,-11100697617.117413,642638539.3441923
118185.61643333333,40077.909067169625,9.185526535089037,39563.97485379155,6397.709665565233,-11001319544.73698,658708838.3295115
118311.2122,40080.53922405431,9.185162287818796,39566.611957297784,6397.8779850490855,-10901934906.951706,674779549.3584884
118436.80796666666,40083.21758788791,9.18479963234154,39569.296475662886,6398.055065335065,-10802543586.209808,690850693.9523926
118562.40373333333,40085.945461375464,9.184438841982338,39572.02966449947,6398.241302447279,-10703145461.858845,706922294.6027406
118687.99949999999,40088.72419322015,9.184080208491789,39574.812822771106,6398.437112506929,-10603740410.039051,722994374.8203603
118813.59526666666,40091.555180103824,9.183724043269182,39577.64729461023,6398.64293289925,-10504328303.572212,739066959.187291
118939.19103333334,40094.43986876652,9.183370678672976,39580.53447122389,6398.859223517279,-10404909011.84587,755140073.4117095
119064.7868,40097.379758190604,9.183020469425362,39583.475792892226,6399.086468088122,-10305482400.69262,771213744.3860799
119190.38256666667,40100.37640189533,9.182673794118362,39586.472751064495,6399.3251755878255,-10206048332.26428,787288000.2487422
119315.97833333333,40103.431410348174,9.182331056829396,39589.52689055788,6399.575881751478,-10106606664.900658,803362870.44917
119441.5741,40106.546453499264,9.181992688855063,39592.63981186459,6399.83915068571,-10007157252.99267,819438385.8171456
119567.16986666666,40109.723263446125,9.181659150572576,39595.81317357309,6400.115576591341,-9907699946.839523,835514578.6361188
119692.76563333333,40112.96363723597,9.181330933439103,39599.04869490951,6400.405785604588,-9808234592.499668,851591482.7210362
119818.3614,40116.26943981334,9.181008562140214,39602.34815840566,6400.710437765945,-9708761031.63521,867669133.5009499
119943.95716666666,40119.6426071215,9.180692596899581,39605.71341270053,6401.030229126608,-9609279101.34946,883747568.1067381
120069.55293333333,40123.085149366176,9.18038363596315,39609.14637548228,6401.365894003184,-9509788634.017275,899826825.4642965
120195.14869999999,40126.599154451,9.180082318272206,39612.649036578325,6401.718207392306,-9410289457.107822,915906946.3935854
120320.74446666666,40130.1867915945,9.17978932634108,39616.22346120126,6402.087987557819,-9310781392.999409,931987973.7139523
120446.34023333334,40133.85031513885,9.179505389356551,39619.87179335909,6402.476098804261,-9211264258.785921,948069952.3561766
120571.936,40137.59206856158,9.179231286517696,39623.59625943823,6402.883454451585,-9111737866.07453,964152929.4817255
120697.53176666667,40141.41448870148,9.178967850636544,39627.399171968485,6403.311020027385,-9012202020.774137,980236954.6097431
120823.12753333333,40145.32011021131,9.17871597202182,39631.282933579474,6403.7598166943,-8912656522.874153,996322079.7523437
120948.7233,40149.31157024982,9.178476602670132,39635.25004115834,6404.230924931866,-8813101166.213078,1012408359.5588197
121074.31906666666,40153.39161342692,9.178250760791135,39639.30309021919,6404.725488493802,-8713535738.236382,1028495851.4694314
121199.91483333333,40157.563097016115,9.178039535695842,39643.444779494916,6405.244718663596,-8613960019.743141,1044584615.8794965
121325.5106,40161.828996449374,9.17784409307986,39647.677915762564,6405.78989883334,-8514373784.620849,1060674716.3145583
121451.10636666666,40166.192411109965,9.177665680736393,39652.00541891376,6406.3623894330085,-8414776799.56781,1076766219.6174788
121576.70213333333,40170.656570440005,9.177505634737216,39656.430327282054,6406.963633239906,-8315168823.802477,1092859196.1483717
121702.29789999999,40175.22484037981,9.177365386123382,39660.95580323941,6407.5951611006785,-8215549608.75908,1108953719.9983678
121827.89366666666,40179.90073015717,9.177246468151552,39665.58513907421,6408.25859810134,-8115918897.768851,1125049869.2182944
121953.48943333334,40184.68789944518,9.177150524146171,39670.32176316345,6408.955670224014,-8016276425.726121,1141147726.0634396
122079.0852,40189.59016590818,9.177079316012705,39675.16924645189,6409.688211532715,-7916621918.738536,1157247377.2556732
122204.68096666667,40194.611513155774,9.177034733472425,39680.1313092509,6410.458171934452,-7816955093.760606,1173348914.2643096
122330.27673333333,40199.756099125734,9.177018804085264,39685.211828369545,6411.2676255663,-7717275658.209762,1189452433.6072214
122455.8725,40205.02826491681,9.177033704133754,39690.41484459034,6412.11877986384,-7617583309.56408,1205558037.173837
122581.46826666666,40210.432544093106,9.177081770448256,39695.74457050138,6413.01398537164,-7517877734.940787,1221665832.5718107
122707.06403333333,40215.97367248165,9.177165513261718,39701.20539869595,6413.95574636217,-7418158610.654629,1237775933.4993093
122832.6598,40221.65659848493,9.177287630190914,39706.80191034955,6414.946732335905,-7318425601.755186,1253888460.145028
122958.25556666666,40227.48649392994,9.177451021450759,39712.538884182955,6415.9897904822465,-7218678361.542156,1270003539.6182516
123083.85133333332,40233.46876547452,9.177658806419004,39718.42130581792,6417.08795918854,-7118916531.057635,1286121306.411473
123209.44709999999,40239.60906659099,9.177914341680317,39724.45437752992,6418.24448269274,-7019139738.554401,1302241902.8983204
123335.04286666666,40245.91331014548,9.178221240691652,39730.64352839896,6419.462826984424,-6919347598.9392,1318365479.869789
123460.63863333334,40252.387681589375,9.178583395225036,39736.994424856144,6420.746697068791,-6819539713.19003,1334492197.1120512
123586.2344,40259.03865277633,9.17900499875953,39743.512981618405,6422.100055719185,-6719715667.746446,1350622224.0294216
123711.83016666667,40265.8729964149,9.17949057201119,39750.205372998586,6423.527143855549,-6619875033.871911,1366755740.316375
123837.42593333333,40272.89780116155,9.180044990808806,39757.07804457041,6425.032502699147,-6520017366.987278,1382892936.682889
123963.0217,40280.12048735334,9.180673516543614,39764.13772515966,6426.620997867925,-6420142205.974538,1399034015.6377652
124088.61746666666,40287.548823371355,9.18138182944383,39771.39143912224,6428.29784559215,-6320249072.450064,1415179192.335022
124214.21323333333,40295.190942616704,9.182176064949317,39778.84651885722,6430.068641246362,-6220337470.006672,1431328695.4889183
124339.809,40303.055361069106,9.183062853488428,39786.51061748787,6431.939390411449,-6120406883.424002,1447482768.363687
124465.40476666666,40311.1509953834,9.184049363988017,39794.39172162551,6433.916542699608,-6020456777.846877,1463641669.8446088
124591.00053333332,40319.487181461765,9.185143351478906,39802.498164109405,6436.007028595222,-5920486597.931554,1479805675.5976753
124716.59629999999,40328.07369341778,9.18635320919269,39810.83863659003,6438.218299586125,-5820495766.96008,1495975079.3257475
124842.19206666666,40336.920762822374,9.187688025581686,39819.42220179228,6440.558371882245,-5720483685.923334,1512150194.1298306
124967.78783333334,40346.03909809018,9.189157646732076,39828.25830525895,6443.0358740420925,-5620449732.573768,1528331353.9848664
125093.3836,40355.43990382698,9.190772744680359,39837.356786331395,6445.660098851519,-5520393260.449452,1544518915.340277
125218.97936666667,40365.13489991321,9.19254489218507,39846.72788807349,6448.441059823496,-5420313597.871655,1560713258.8563867
125344.57513333333,40375.13634004452,9.194486644548581,39856.382265784596,6451.389552711462,-5320210046.919027,1576914791.288811
125470.1709,40385.457029385136,9.196611629127046,39866.33099367673,6454.517222451524,-5220081882.382417,1593123947.5339115
125595.76666666666,40396.110340912914,9.198934643208826,39876.5855692077,6457.836635969303,-5119928350.70551,1609341192.849491
125721.36243333333,40407.11022994338,9.201471760981796,39887.15791446467,6461.361361304093,-5019748668.917874,1625567025.2660174
125846.9582,40418.4712462119,9.204240450345514,39898.060373878674,6465.10605351455,-4919542023.568646,1641801978.2048256
125972.55396666666,40430.208542765504,9.207259700352703,39909.30570741796,6469.086547833861,-4819307569.671064,1658046623.3209164
126098.14973333332,40442.33788076578,9.210550160082285,39920.90707825357,6473.319960535441,-4719044429.670345,1674301573.5891542
126223.74549999999,40454.87562912865,9.214134289748635,39932.87803371238,6477.824797948642,-4618751692.450184,1690567486.6537998
126349.34126666666,40467.83875772147,9.21803652483297,39945.23247812653,6482.621074023167,-4518428412.396322,1706845068.4623823
126474.93703333334,40481.24482259947,9.222283453975276,39957.984635952096,6487.730436774633,-4418073608.539443,1723135077.2058568
126600.5328,40495.11194148782,9.226904011279327,39971.149003260085,6493.176303844645,-4317686263.80403,1739438327.5877175
126726.12856666667,40509.45875739813,9.23192968354746,39984.74028539665,6498.984007267522,-4217265324.3949623,1755755695.445185
126851.72433333333,40524.3043879058,9.23739473276083,39998.77331826554,6505.180947341101,-4116809699.359553,1772088122.7456045
126977.3201,40539.668357203474,9.243336433837085,40013.26297030183,6511.796755237129,-4016318260.3696117,1788436622.9806533
127102.91586666666,40555.57050758455,9.249795327308226,40028.22402178328,6518.8634636409815,-3915789841.775953,1804802286.9796655
127228.51163333333,40572.03088649765,9.256815486040763,40043.67101766705,6526.415684261231,-3815223240.9967732,1821186289.1611056
127354.1074,40589.06960475269,9.264444794436043,40059.61808965072,6534.490790473832,-3714617219.311486,1837589894.2376714
127479.70316666666,40606.70666085614,9.272735237664122,40076.07874264953,6543.129102636849,-3613970503.1430316,1854014464.385339
127605.29893333332,40624.96172582195,9.281743197356946,40093.06560037421,6552.374072699778,-3513281785.9244156,1870461466.8794575
127730.89469999999,40643.85388216405,9.29152974876833,40110.59010421224,6562.272463603791,-3412549730.6591935,1886932482.1912396
127856.49046666666,40663.40131015974,9.30216095264723,40128.66215919866,6572.874517591084,-3311772973.3007774,1903429212.5251324
127982.08623333334,40683.620913924606,9.313708132913106,40147.28972056406,6584.234105878574,-3210950127.091505,1919953490.7608657
128107.682,40704.52787942446,9.326248128615713,40166.4783142387,6596.408850172569,-3110079788.0190563,1936507289.7427576
128233.27776666667,40726.13515635379,9.339863505561013,40186.23048486761,6609.46020418411,-3009160541.564431,1953092731.8322337
128358.87353333333,40748.45285594795,9.354642709361904,40206.54516547251,6623.453480642228,-2908190970.9314437,1969712098.6066504
128484.4693,40771.487557413966,9.37068013752621,40227.41696403303,6638.4578063123645,-2807169666.961412,1986367840.547524
128610.06506666666,40795.24151694342,9.38807610357001,40248.83536413242,6654.545984265723,-2706095239.946748,2003062586.513375
128735.66083333333,40819.71177542793,9.40693666115391,40270.78383963337,6671.794239223357,-2604966333.5614657,2019799152.7360215
128861.2566,40844.88916428351,9.427373251089628,40293.23888734885,6690.281818402161,-2503781641.1224933,2036580551.0140753
128986.85236666666,40870.75721347609,9.44950212908717,40316.168987093486,6710.090417202227,-2402539924.3798766,2053409995.7039528
129112.44813333332,40897.29097220233,9.473443527802608,40339.53350556424,6731.303396701308,-2301240035.0026174,2070290909.028122
129238.04389999999,40924.45576095666,9.4993205037901,40363.28156937294,6754.0047588091875,-2199880938.8755956,2087226924.1349382
129363.63966666667,40952.20588406504,9.527257419263718,40387.350943286896,6778.2778457831355,-2098461743.2471004,2104221885.2582402
129489.23543333334,40980.48334418745,9.55737801125865,40411.666962192416,6804.203734462345,-1996981726.661282,2121279844.2437708
129614.8312,41009.21661453251,9.589803008158707,40436.1415790581,6831.859303002222,-1895440371.471318,2138405052.64168
129740.42696666667,41038.31953998467,9.62464726703688,40460.67260544064,6861.314960066594,-1793837398.5547347,2155601948.5205455
129866.02273333333,41067.69045394217,9.662016426184369,40485.14323456707,6892.632044248476,-1692172803.6421452,2172875137.1517215
129991.6185,41097.21161177688,9.702003096610486,40509.421947929644,6925.8599255085,-1590446894.428524,2190229364.7584906
130117.21426666666,41126.74905224416,9.74468265455003,40533.362912299584,6961.032870636523,-1488660327.3711963,2207669484.638529
130242.81003333333,41156.15300216328,9.790108743408464,40556.8069723579,6998.166770260235,-1386814142.806584,2225200415.165669
130368.4058,41185.25893423678,9.838308645893763,40579.58333188673,7037.255863658141,-1284909796.761384,2242827089.46941
130494.00156666666,41213.889370064826,9.88927874126183,40601.51199114025,7078.269636093041,-1182949187.6232958,2260554396.9826946
130619.59733333332,41241.856488034166,9.942980312606258,40622.40696808172,7121.1500966593385,-1080934675.7072592,2278387117.5341496
130745.19309999999,41268.96554805465,9.999336007218265,40642.08027681389,7165.809666711594,-978869093.7432331,2296329849.220228
130870.78886666667,41295.01908350603,10.05822727057919,40660.346570333335,7212.129913382649,-876755746.4554732,2314386931.889272
130996.38463333333,41319.82173942059,10.119493063305525,40677.028282118445,7259.961343783501,-774598397.7258977,2332562368.6510644
131121.9804,41343.185561921484,10.182930124339492,40691.961030162616,7309.124429587987,-672401244.3428992,2350859748.326987
131247.57616666667,41364.935476682134,10.248294960985154,40704.998987981264,7359.41195874509,-570168876.0157617,2369282172.1069117
131373.17193333333,41384.91464419634,10.315307630812573,40716.01989036784,7410.592715470671,-467906222.14044327,2387832187.813964
131498.7677,41402.989356690865,10.383657242046572,40724.92933612398,7462.416380634702,-365618486.6659218,2406511735.0490694
131624.36346666666,41419.05315238064,10.45300895339733,40731.664080707975,7514.619435214027,-263311073.2437906,2425322104.074432
131749.95923333333,41433.02986946051,10.523012120237832,40736.19407831915,7566.931754490879,-160989503.55289596,2444263910.616027
131875.555,41444.87544093904,10.593309130365494,40738.523128860004,7619.0835140645595,-58659332.189845785,2463337087.875217
132001.15076666666,41454.5783328022,10.663544414260018,40738.68809868315,7670.8120006062945,43673938.256580204,2482540896.025879
132126.74653333332,41462.15863875654,10.733373109793817,40736.75680002322,7721.867934714706,146004938.400087,2501873948.442097
132252.3423,41467.66595026131,10.80246890924188,40732.82471722486,7772.020967438048,248328506.32907873,2521334252.9602485
132377.93806666665,41471.17620749531,10.870530708423432,40727.01084566179,7821.064097069655,350639752.35443926,2540919265.7202888
132503.53383333332,41472.7877959316,10.937287799031763,40719.45295382761,7868.816855626573,452934112.37718034,2560625954.6170726
132629.1296,41472.617180118876,11.002503477963568,40710.302588544466,7915.127220572052,555207388.8337691,2580450869.1499696
