t,V,theta,vX,vY,X,Y
602859.6799999999,40000.0,13.100000000000012,38959.03869116206,9066.052297474209,-15071492000.0,0.0
602985.2757666666,40001.37345917536,13.09954290907012,38960.448735258076,9066.052777683699,-14973628433.920103,22773155.77882736
603110.8715333333,40002.76521150521,13.099081194016136,38961.877330687006,9066.054237390676,-14875761302.856714,45546313.97014589
603236.4673,40004.175623514515,13.098614791063403,38963.32484462891,9066.056715513994,-14777890559.755293,68319477.08229391
603362.0630666666,40005.605071543665,13.098143635496715,38964.7916539767,9066.060252530177,-14680016156.626974,91092647.72328436
603487.6588333333,40007.053942077764,13.097667661654532,38966.278145657976,9066.064890543055,-14582138044.52377,113865828.60480277
603613.2546,40008.52263208912,13.097186802923993,38967.78471696954,9066.07067335694,-14484256173.512955,136639022.54638454
603738.8503666667,40010.01154939374,13.096700991736828,38969.31177592547,9066.077646553505,-14386370492.650593,159412232.47978067
603864.4461333333,40011.52111302228,13.096210159566292,38970.85974161912,9066.085857572609,-14288480949.954166,182185461.45352122
603990.0419,40013.05175360638,13.095714236925161,38972.42904459989,9066.095355797272,-14190587492.374283,204958712.63768694
604115.6376666666,40014.60391378084,13.095213153365005,38974.02012726534,9066.106192643065,-14092690065.765415,227731989.3288998
604241.2334333333,40016.17804860273,13.094706837476746,38975.633444269435,9066.118421652143,-13994788614.855644,250505294.95554373
604366.8292,40017.7746259879,13.094195216892714,38977.26946294772,9066.13209859222,-13896883083.215338,273278633.0832274
604492.4249666666,40019.394127166124,13.093678218290323,38978.928663760205,9066.14728156076,-13798973413.224758,296052007.4205023
604618.0207333333,40021.03704715544,13.093155767397507,38980.611540752834,9066.164031094708,-13701059546.040525,318825421.824849
604743.6165,40022.703895256884,13.092627789000126,38982.31860203841,9066.18241028608,-13603141421.560902,341598880.3089462
604869.2122666667,40024.395195570534,13.092094206951472,38984.050370298035,9066.202484903772,-13505218978.389833,364372387.0472381
604994.8080333333,40026.11148753399,13.09155494418413,38985.80738330398,9066.22432352197,-13407292153.79972,387145946.3828153
605120.4038,40027.85332648434,13.091009922724385,38987.59019446509,9066.24799765555,-13309360883.692833,409919562.83462703
605245.9995666667,40029.62128424492,13.090459063709405,38989.39937339588,9066.273581902906,-13211425102.561335,432693241.1050425
605371.5953333334,40031.41594973804,13.089902287407462,38991.235506510515,9066.301154096675,-13113484743.445852,455466986.0877807
605497.1910999999,40033.23792962517,13.089339513241502,38993.09919764293,9066.33079546283,-13015539737.892504,478240802.8762288
605622.7868666666,40035.087848975774,13.088770659816303,38994.99106869439,9066.362590788693,-12917590015.908356,501014696.77217126
605748.3826333333,40036.96635196658,13.088195644949622,38996.91176031004,9066.396628600392,-12819635505.915203,523788673.29495245
605873.9784,40038.87410261265,13.087614385707615,38998.8619325858,9066.433001350422,-12721676134.701616,546562738.1910971
605999.5741666666,40040.81178553213,13.087026798444986,39000.8422658073,9066.471805615889,-12623711827.37318,569336897.4444153
606125.1699333333,40042.78010674638,13.086432798850241,39002.85346122251,9066.51314230818,-12525742507.300825,592111157.286619
606250.7657,40044.77979451739,13.08583230199652,39004.896241849856,9066.557116894784,-12427768096.067184,614885524.2084796
606376.3614666667,40046.8116002246,13.085225222398515,39006.971353323715,9066.603839634046,-12329788513.410868,637660004.9715599
606501.9572333333,40048.8762992832,13.084611474076002,39009.07956477936,9066.653425823726,-12231803677.168568,660434606.6205509
606627.553,40050.97469210624,13.083990970624578,39011.22166977941,9066.705996064275,-12133813503.214888,683209336.4962515
606753.1487666667,40053.10760511298,13.083363625294261,39013.39848728414,9066.761676537802,-12035817905.399797,705984202.2492291
606878.7445333333,40055.27589178607,13.082729351076646,39015.610862668014,9066.820599303821,-11937816795.483583,728759211.8542002
607004.3402999999,40057.48043378034,13.082088060801345,39017.85966878503,9066.882902612864,-11839810083.069193,751534373.6251767
607129.9360666666,40059.72214208608,13.081439667242607,39020.14580708561,9066.948731239248,-11741797675.531843,774309696.2314224
607255.5318333333,40062.001958250024,13.080784083236946,39022.470208787956,9067.01823683426,-11643779477.945751,797085188.7142708
607381.1276,40064.32085565728,13.080121221812847,39024.8338361069,9067.091578301219,-11545755393.007849,819860860.5048563
607506.7233666667,40066.67984087786,13.079450996333534,39027.237683543644,9067.16892219393,-11447725320.958347,842636721.4428157
607632.3191333333,40069.07995508147,13.078773320654028,39029.682779239774,9067.25044314018,-11349689159.497974,865412781.7960212
607757.9149,40071.5222755247,13.078088109293798,39032.1701863994,9067.33632429206,-11251646803.70173,888189052.2814102
607883.5106666667,40074.00791711497,13.077395277626318,39034.70100478335,9067.426757805059,-11153598145.92899,910965544.0869802
608009.1064333334,40076.538034055644,13.07669474208712,39037.27637227964,9067.521945347957,-11055543075.729736,933742268.8950251
608134.7021999999,40079.113821577506,13.075986420402039,39039.89746655484,9067.622098645832,-10957481479.746788,956519238.9066923
608260.2979666666,40081.736517761594,13.075270231837358,39042.56550679108,9067.72744005855,-10859413241.613735,979296466.8679465
608385.8937333333,40084.40740545927,13.07454609747399,39045.28175551396,9067.838203197412,-10761338241.848429,1002073966.0970334
608511.4895,40087.127814315376,13.073813940507764,39048.04752051685,9067.954633582785,-10663256357.741745,1024851750.5135413
608637.0852666666,40089.89912290097,13.073073686578287,39050.8641568874,9068.076989345811,-10565167463.2414,1047629834.6691687
608762.6810333333,40092.72276096265,13.07232526412895,39053.73306914283,9068.205541977544,-10467071428.83054,1070408233.7803112
608888.2768,40095.60021179572,13.071568604800966,39056.65571348046,9068.340577129147,-10368968121.400826,1093186963.7625923
609013.8725666667,40098.53301474931,13.070803643864595,39059.633600150984,9068.48239546709,-10270857404.119713,1115966041.2674706
609139.4683333333,40101.52276787184,13.07003032069101,39062.668295962074,9068.631313587652,-10172739136.29162,1138745483.7210667
609265.0641,40104.57113070603,13.069248579268583,39065.761426920726,9068.787664995356,-10074613173.21263,1161525309.3653657
609390.6598666667,40107.67982724337,13.068458368767763,39068.914681023256,9068.951801150457,-9976479366.018373,1184305537.3019588
609516.2556333333,40110.85064904847,13.06765964415915,39072.12981120249,9069.124092590951,-9878337561.524723,1207086187.5385072
609641.8513999999,40114.08545856479,13.066852366889766,39075.40863844247,9069.304930135175,-9780187602.060873,1229867281.0381227
609767.4471666666,40117.386192613914,13.066036505623094,39078.75305507171,9069.49472617152,-9682029325.294384,1252648839.7718716
609893.0429333333,40120.75486610157,13.065212037048994,39082.165028246774,9069.693916042452,-9583862564.04771,1275430886.7746348
610018.6387,40124.19357594453,13.064378946770198,39085.64660363912,9069.902959530631,-9485687146.105751,1298213446.2045658
610144.2344666666,40127.704505233814,13.063537230272843,39089.19990933874,9070.122342455708,-9387502894.013853,1320996543.4064155
610269.8302333333,40131.289927650476,13.062686893989213,39092.827159989516,9070.352578391135,-9289309624.86575,1343780204.9790132
610395.426,40134.95221215206,13.061827956461725,39096.530661172095,9070.594210511226,-9191107150.080797,1366564458.8472161
610521.0217666667,40138.69382794869,13.0609604496182,39100.31281405154,9070.847813579694,-9092895275.16988,1389349334.3386688
610646.6175333334,40142.51734978976,13.06008442016941,39104.17612030813,9071.113996091955,-8994673799.489305,1412134862.2657442
610772.2133,40146.42546358355,13.059199931141194,39108.12318737135,9071.393402584708,-8896442515.981941,1434921075.0130649
610897.8090666666,40150.42097237421,13.058307063554668,39112.15673397851,9071.686716127606,-8798201210.90481,1457708006.6310468
611023.4048333333,40154.50680270233,13.057405918269545,39116.2795960814,9071.994661013321,-8699949663.542305,1480495692.9359393
611149.0006,40158.68601137767,13.056496618007278,39120.49473312584,9072.318005663956,-8601687645.904108,1503284171.6168818
611274.5963666666,40162.96179269488,13.055579309572463,39124.8052347316,9072.657565773521,-8503414922.406856,1526073482.350546
611400.1921333333,40167.33748612581,13.054654166293133,39129.21432780183,9073.014207708286,-8405131249.538504,1548863666.92398
611525.7879,40171.816584524844,13.053721390702776,39133.72538409393,9073.388852189004,-8306836375.504272,1571654769.366333
611651.3836666667,40176.40274288657,13.052781217489532,39138.3419282863,9073.782478281562,-8208530039.852981,1594446836.0901985
611776.9794333333,40181.099787699015,13.051833916740984,39143.06764657823,9074.196127725369,-8110211973.082462,1617239916.0433865
611902.5752,40185.91172693902,13.050879797516124,39147.90639586346,9074.630909631958,-8011881896.222693,1640034060.8720129
612028.1709666667,40190.84276076059,13.049919211779823,39152.86221352129,9075.088005589745,-7913539520.395128,1662829325.0958767
612153.7667333334,40195.89729293171,13.048952558739263,39157.9393278729,9075.568675214794,-7815184546.346632,1685625766.2971935
612279.3624999999,40201.07994307976,13.047980289626473,39163.14216935445,9076.074262191867,-7716816663.956288,1708423445.3238602
612404.9582666666,40206.395559811666,13.047002912976298,39168.47538246346,9076.60620085488,-7618435551.713203,1731222426.5085373
612530.5540333333,40211.8492347802,13.046021000455214,39173.94383853923,9077.166023361458,-7520040876.16329,1754022777.9049718
612656.1498,40217.446317775175,13.045035193303049,39179.552649443875,9077.755367522492,-7421632291.322871,1776824571.5431252
612781.7455666666,40223.19243292491,13.044046209457328,39185.30718221622,9078.375985354523,-7323209438.056732,1799627883.7048292
612907.3413333333,40229.09349610183,13.043054851438605,39191.21307477711,9079.029752430728,-7224771943.418099,1822432795.2218795
613032.9371,40235.15573363448,13.042062015085003,39197.27625277179,9079.718678115081,-7126319419.947799,1845239391.7986698
613158.5328666667,40241.385702438114,13.041068699235295,39203.50294764254,9080.444916774366,-7027851464.92962,1868047764.3617
613284.1286333334,40247.79031168671,13.04007601647259,39209.89971603308,9081.21078007398,-6929367659.598676,1890858009.4385383
613409.7244,40254.376846160856,13.039085205055173,39216.47346063548,9082.018750476354,-6830867568.299289,1913670229.5690997
613535.3201666666,40261.15299141914,13.038097642177505,39223.23145260013,9082.871496075368,-6732350737.588616,1936484533.752423
613660.9159333333,40268.12686095476,13.037114858723331,39230.181355640074,9083.771886916602,-6633816695.281951,1959301037.9324758
613786.5117,40275.30702551502,13.036138555694283,39237.33125197322,9084.723012972117,-6535264949.435256,1982119865.5269194
613912.1074666666,40282.70254477856,13.035170622522164,39244.68967025832,9085.728203959745,-6436694987.260129,2004941148.0032175
614037.7032333333,40290.3230016046,13.034213157501346,39252.265615695025,9086.791051221247,-6338106273.965995,2027765025.5069704
614163.299,40298.178539089145,13.033268490610164,39260.06860247334,9087.915431901445,-6239498251.523854,2050591647.5479348
614288.8947666667,40306.27990068698,13.032339209027624,39268.10868877431,9089.105535702141,-6140870337.345452,2073421173.74983
614414.4905333333,40314.63847368309,13.031428185694647,39276.39651454165,9090.36589452092,-6042221922.87119,2096253774.670765
614540.0863,40323.26633632595,13.030538611318613,39284.943342263185,9091.70141532646,-5943552372.059538,2119089632.701945
614665.6820666667,40332.176308965645,13.029674030277151,39293.76110102149,9093.117416669595,-5844861019.770066,2141928943.053259
614791.2778333334,40341.38200957358,13.028838380943144,39302.86243409528,9094.61966928407,-5746147170.031553,2164771914.8354106
614916.8735999999,40350.89791405784,13.028036041029369,39312.260750416215,9096.214441293803,-5647410094.185878,2187618772.2494783
615042.4693666666,40360.73942182835,13.02727187863967,39321.970280210444,9097.908548615773,-5548649028.897616,2210469755.896159
615168.0651333333,40370.92292711009,13.02655130981631,39332.006135179734,9099.70941123106,-5449863174.018401,2233325124.2185435
615293.6609,40381.46589655006,13.025880363492423,39342.38437360329,9101.625116092779,-5351051690.294179,2256185155.094057
615419.2566666666,40392.386953714944,13.025265754897164,39353.12207076778,9103.664487550654,-5252213696.902506,2279050147.5932736
615544.8524333333,40403.70597113131,13.024714968622758,39364.23739515922,9105.837166300556,-5153348268.80598,2301920423.925658
615670.4482,40415.44417057802,13.024236352750798,39375.74969087482,9108.153698015869,-5054454433.906758,2324796331.5950074
615796.0439666667,40427.624232401715,13.023839225654939,39387.679566734856,9110.625632989859,-4955531169.985971,2347678245.7904634
615921.6397333333,40440.27041468928,13.023533997353717,39400.048992591976,9113.26563831785,-4856577401.410556,2370566572.042541
616047.2355,40453.40868319442,13.023332307587182,39412.881403345564,9116.087624379616,-4757591995.5888195,2393461749.177724
616172.8312666666,40467.066852978656,13.023247183142255,39426.20181116911,9119.106887651318,-4658573759.154733,2416364252.6099195
616298.4270333333,40481.27474278507,13.023293217362562,39440.03692644389,9122.340272188427,-4559521433.85968,2439274598.012518
616424.0228,40496.064343214624,13.023486775260139,39454.41528785782,9125.806352483592,-4460433692.149199,2462193345.4211082
616549.6185666666,40511.469999812194,13.023846228210413,39469.36740206531,9129.525640824262,-4361309132.401138,2485121103.8241863
616675.2143333333,40527.52861218731,13.024392222873061,39484.92589320402,9133.520822763121,-4262146273.80077,2508058536.307601
616800.8101,40544.27985028076,13.025147989755355,39501.1256624123,9137.817024880424,-4162943550.8277993,2531006365.8282228
616926.4058666667,40561.76638883141,13.02613969774103,39518.004057272105,9142.442119672372,-4063699307.3300896,2553965381.703584
617052.0016333333,40580.03416097693,13.027396861966908,39535.6010507915,9147.42707315609,-3964411790.159418,2576936446.917258
617177.5974,40599.132631714725,13.0289528136657,39553.95942911111,9152.806341652547,-3865079142.3460245,2599920506.3548026
617303.1931666667,40619.11509162177,13.03084524203183,39573.12498653094,9158.61832520694,-3765699395.791361,2622918596.102513
617428.7889333334,40640.038970739464,13.033116819835058,39593.146725658444,9164.905886243692,-3666270463.4628572,2645931853.9612727
617554.3846999999,40661.966171814754,13.035815926430992,39614.077059412346,9171.71694333988,-3566790131.081165,2668961531.350938
617679.9804666666,40684.963421074724,13.038997484022763,39635.97201019523,9179.105151440857,-3467256048.300085,2692009006.8072095
617805.5762333333,40709.10263329581,13.042723925532501,39658.89139966637,9187.130681430453,-3367665719.393204,2715075801.303304
617931.172,40734.461285979996,13.047066315249678,39682.89902006674,9195.86111368528,-3268016493.480438,2738163595.6632543
618056.7677666666,40761.122794793264,13.052105646519589,39708.06277479729,9205.372462044787,-3168305554.3539567,2761274250.372644
618182.3635333333,40789.176878833714,13.057934344063957,39734.45477170879,9215.750346434696,-3068529909.9984865,2784409828.136163
618307.9593,40818.71989948693,13.06465800197431,39762.15134705094,9227.09133405461,-2968686381.948566,2807572619.579406
618433.5550666667,40849.855150227886,13.072397391781651,39791.23299090859,9239.504470361384,-2868771594.6885304,2830765172.5443206
618559.1508333333,40882.69306627752,13.081290777939916,39821.78413580901,9253.113021707113,-2768781965.384361,2853990325.482411
618684.7466,40917.35131194522,13.091496580016704,39853.89275852371,9268.056450909025,-2668713694.3456726,2877251245.504905
618810.3423666666,40953.95468909451,13.103196421014742,39887.64973035016,9284.49264447461,-2568562756.7580447,2900551471.7008853
618935.9381333333,40992.6347916492,13.116598598274528,39923.14783273519,9302.600404569688,-2468324896.4090815,2923894964.376658
619061.5338999999,41033.52930751906,13.131942005454597,39960.48033240428,9322.582208516917,-2367995622.366083,2947286160.8931084
619187.1296666666,41076.7808398634,13.149500518446667,39999.73898273414,9344.667221432113,-2267570209.8604183,2970730038.7683263
619312.7254333333,41122.53508347483,13.169587830955944,40041.011285844375,9369.114520513762,-2167043707.005961,2994232186.649934
619438.3212,41170.93814894255,13.192562681650811,40084.37681338898,9396.216448459289,-2066410949.4382472,3017798883.615995
619563.9169666667,41222.132777776336,13.218834347349866,40129.90234518114,9426.301953303213,-1965666585.516635,3041437186.994341
619689.5127333333,41276.2531382232,13.248868176890609,40177.63554762289,9459.739686326991,-1864805115.3861876,3065155028.4422593
619815.1085,41333.41783946049,13.283190797648153,40227.596885887426,9496.940511447405,-1763820947.9383302,3088961317.329194
619940.7042666667,41393.720761329474,13.322394429896255,40279.76945747639,9538.358921715575,-1662708480.504562,3112866049.423178
620066.3000333334,41457.21928498701,13.367139483543761,40334.086469858536,9584.492656654998,-1561462206.891597,3136880417.3897824
620191.8957999999,41523.919553754175,13.418154283397554,40390.41619025966,9635.879569829554,-1460076859.9853015,3161016917.556123
620317.4915666666,41593.75853204232,13.476230382918645,40448.544410394206,9693.090523780867,-1358547595.3955407,3185289444.672999
620443.0873333333,41666.58291497366,13.542211518252563,40508.15484050184,9756.716826284453,-1256870222.1543345,3209713362.984269
620568.6831,41742.12543152482,13.616973902220625,40568.80842366918,9827.350539427183,-1155041484.857746,3234305537.870869
620694.2788666666,41819.979833094694,13.701395400324689,40629.92337403158,9905.556009672993,-1053059398.2853804,3259084307.9963264
620819.8746333333,41899.5768863167,13.796311377881196,40690.758772456946,9991.83135236393,-950923629.8269693,3284069373.922649
620945.4704,41980.164932077794,13.902455930624898,40750.40568532226,10086.559582241582,-848635916.5143754,3309281576.760494
621071.0661666667,42060.79983103327,14.020389086717943,40807.790741495424,10189.950795983694,-746200492.0659395,3334742541.273075
621196.6619333333,42140.35000005464,14.150413551456223,40861.697467022605,10301.979336060806,-643624485.9483347,3360474164.0611815
621322.2577,42217.522183921115,14.292488495994169,40910.80986031645,10422.322961936363,-540918243.2390558,3386497940.9889436
621447.8534666667,42290.911977720025,14.44615208045432,40953.78015878137,10550.314052835995,-438095504.77390784,3412834149.7752614
621573.4492333333,42359.07952316075,14.61046754880799,40989.31833064051,10684.914638820183,-335173386.56144506,3439500932.270545
621699.0449999999,42420.64546933899,14.784008149244375,41016.295091268374,10824.726279280443,-232172110.3386739,3466513351.608482
621824.6407666666,42474.39634695627,14.964892392921145,41033.8446846797,10968.041549516296,-129114465.44888154,3493882524.1106668
621950.2365333333,42519.38389127728,15.150873017407783,41041.450413508115,11112.936355858616,-26025023.04054302,3521614935.0982156
622075.8323,42555.001626667065,15.339472070268906,41038.99683460775,11257.39322643974,77070831.74297987,3549712034.5719438
622201.4280666667,42581.02533112949,15.528144032073431,41026.77821504967,11399.438036298825,180147947.78639564,3578170172.4159293
622327.0238333333,42597.61122637367,15.714442508292528,41005.46185624693,11537.269180753054,283182418.2942783,3606980880.961468
622452.6196,42605.254596196704,15.896166023395882,40976.0143020222,11669.36035638683,386152444.56063926,3636131459.1357846
