t,V,theta,vX,vY,X,Y
527502.22,40000.0,12.500000000000009,39051.840284797334,8657.584557524122,-15071492000.0,0.0
527627.8157666667,40001.37675751724,12.499563596166722,39053.25035088472,8657.58508638308,-14973395324.174093,21747119.399674725
527753.4115333334,40002.77190606811,12.499122966425626,39054.67901294809,8657.586694021846,-14875295083.254213,43494241.45624731
527879.0072999999,40004.1858148044,12.498678057679735,39056.12663950577,8657.589423406787,-14777191230.072021,65241368.93242696
528004.6030666666,40005.61886277009,12.498228816255333,39057.59360882466,8657.593319227064,-14679083716.521448,86988504.70096731
528130.1988333333,40007.071439233,12.49777518791116,39059.08030924274,8657.598427971745,-14580972493.533806,108735651.74908835
528255.7946,40008.54394402976,12.497317117849125,39060.58713950445,8657.60479801084,-14482857511.05208,130482813.18309689
528381.3903666666,40010.036787924866,12.496854550726692,39062.114509109495,8657.61247968044,-14384738718.004358,152229992.2332157
528506.9861333333,40011.55039298418,12.496387430671053,39063.662838675584,8657.621525372222,-14286616062.27637,173977192.25863156
528632.5819,40013.08519296397,12.495915701295278,39065.232560315955,8657.631989627567,-14188489490.68309,195724416.75277412
528758.1776666667,40014.64163371592,12.495439305716545,39066.82411803223,8657.643929236547,-14090358948.939388,217471669.34883687
528883.7734333333,40016.220173608934,12.494958186576689,39068.43796812336,8657.657403342078,-13992224381.629648,239218953.82555318
529009.3692,40017.821283968755,12.494472286065205,39070.07457961151,8657.672473549539,-13894085732.176365,260966274.1132405
529134.9649666667,40019.44544953591,12.49398154594492,39071.734434685546,8657.689204042166,-13795942942.80764,282713634.3001272
529260.5607333333,40021.09316894326,12.493485907580583,39073.418029163164,8657.707661702594,-13697795954.523535,304461038.63897645
529386.1564999999,40022.76495521384,12.492985311970571,39075.12587297239,8657.727916240881,-13599644707.061245,326208491.5540236
529511.7522666666,40024.46133628016,12.492479699781967,39076.85849065353,8657.750040329433,-13501489138.859037,347955997.6482435
529637.3480333333,40026.182855525956,12.491969011389324,39078.61642188251,8657.77410974522,-13403329187.018906,369703561.71096516
529762.9438,40027.93007235159,12.49145318691734,39080.40022201669,8657.800203519762,-13305164787.26788,391451188.72585416
529888.5395666667,40029.703562764254,12.490932166287871,39082.2104626643,8657.828404097336,-13206995873.91793,413198883.8792807
530014.1353333333,40031.50391999428,12.490405889271491,39084.04773227865,8657.858797501913,-13108822379.824425,434946652.56909615
530139.7311,40033.33175513882,12.489874295544116,39085.912636778354,8657.89147351339,-13010644236.343044,456694500.4138406
530265.3268666667,40035.18769783449,12.489337324748973,39087.80580019499,8657.926525853673,-12912461373.285122,478442433.26240456
530390.9226333334,40037.0723969603,12.488794916564443,39089.72786534948,8657.964052383259,-12814273718.871313,500190457.20417106
530516.5184,40038.98652137257,12.488247010778196,39091.67949455878,8658.004155308961,-12716081199.683525,521938578.5796652
530642.1141666666,40040.93076067351,12.48769354736816,39093.6613703744,8658.046941403507,-12617883740.615046,543686803.9917396
530767.7099333333,40042.9058260152,12.487134466590868,39095.67419635442,8658.092522237765,-12519681264.818758,565435140.3173276
530893.3057,40044.912450941025,12.486569709077784,39097.71869787083,8658.141014426428,-12421473693.65339,587183594.7197951
531018.9014666666,40046.95139226637,12.485999215940254,39099.79562295399,8658.192539888025,-12323260946.627687,608932174.6619276
531144.4972333333,40049.02343100095,12.485422928883807,39101.90574317631,8658.24722612021,-12225042941.342396,630680887.9195892
531270.093,40051.12937331486,12.484840790332546,39104.049854577075,8658.305206491343,-12126819593.43001,652429742.596092
531395.6887666667,40053.270051550906,12.484252743564493,39106.2287786309,8658.366620549452,-12028590816.49211,674178747.13732
531521.2845333333,40055.446325285666,12.483658732858746,39108.44336326198,8658.431614349736,-11930356522.03424,695927910.3476512
531646.8803,40057.65908244215,12.483058703655466,39110.69448390675,8658.500340801884,-11832116619.398157,717677241.4067264
531772.4760666667,40059.90924045694,12.482452602729712,39112.983044627734,8658.572960038546,-11733871015.691359,739426749.8871155
531898.0718333333,40062.19774750475,12.481840378380342,39115.30997928119,8658.649639806432,-11635619615.713743,761176445.7729387
532023.6675999999,40064.52558378401,12.481221980635173,39117.676252741876,8658.730555881593,-11537362321.881273,782926339.4794974
532149.2633666666,40066.89376286666,12.48059736147377,39120.08286218793,8658.815892510576,-11439099034.14648,804676441.8739804
532274.8591333333,40069.303333116186,12.4799664750694,39122.53083844943,8658.90584287929,-11340829649.915674,826426764.2973126
532400.4549,40071.75537917768,12.479329278051708,39125.021247424294,8659.000609611534,-11242554063.962667,848177318.5872165
532526.0506666667,40074.25102354438,12.478685729791879,39127.55519156535,8659.10040529932,-11144272168.33888,869928117.1025645
532651.6464333333,40076.79142820499,12.478035792712243,39130.13381144275,8659.205453067276,-11045983852.27959,891679172.749105
532777.2422,40079.377796376975,12.477379432622357,39132.75828738622,8659.315987173622,-10947689002.106184,913430499.006651
532902.8379666667,40082.01137433064,12.476716619083872,39135.42984121179,8659.43225365038,-10849387501.124165,935182109.9578247
533028.4337333334,40084.693453309905,12.47604732580666,39138.14973803811,8659.554510985728,-10751079229.516722,956934020.3184621
533154.0295,40087.42537155539,12.475371531078904,39140.919288197656,8659.683030851642,-10652764064.233616,978686245.4697864
533279.6252666666,40090.208516436425,12.47468921823411,39143.739849248675,8659.818098880209,-10554441878.875149,1000438801.4924675
533405.2210333333,40093.04432669854,12.474000376158292,39146.61282809393,8659.960015492321,-10456112543.570938,1022191705.2026958
533530.8168,40095.93429483388,12.473304999840845,39149.53968321284,8660.109096782731,-10357775924.853245,1043944974.190405
533656.4125666666,40098.87996958227,12.47260309097299,39152.52192701404,8660.265675465815,-10259431885.52453,1065698626.859792
533782.0083333333,40101.882958571245,12.471894658598002,39155.561128315865,8660.430101886759,-10161080284.518972,1087452682.472291
533907.6041,40104.944931104066,12.471179719817897,39158.65891496284,8660.6027451033,-10062720976.757557,1109207161.1921737
534033.1998666667,40108.0676211053,12.470458300561631,39161.8169765867,8660.783994043575,-9964353812.996443,1130962084.1349583
534158.7956333333,40111.25283023427,12.469730436420392,39165.03706752125,8660.974258746162,-9865978639.668194,1152717473.4188256
534284.3914,40114.50243117747,12.468996173556084,39168.32100988095,8661.173971688915,-9767595298.715494,1174473352.2192578
534409.9871666667,40117.81837113183,12.468255569689804,39171.67069681379,8661.38358921379,-9669203627.41691,1196229744.8271315
534535.5829333334,40121.20267549168,12.467508695177544,39175.08809593985,8661.603593055523,-9570803458.204271,1217986676.7105136
534661.1786999999,40124.65745175318,12.46675563418138,39178.57525298783,8661.834491982718,-9472394618.471159,1239744174.580434
534786.7744666666,40128.18489365095,12.465996485944983,39182.13429564255,8662.07682356074,-9373976930.372004,1261502266.4609275
534912.3702333333,40131.787285542974,12.465231366183328,39185.767437617615,8662.33115604661,-9275550210.611258,1283260981.7636611
535037.966,40135.46700706098,12.464460408597413,39189.47698296838,8662.598090427147,-9177114270.222033,1305020351.3674965
535163.5617666666,40139.226538044735,12.463683766525921,39193.26533066145,8662.878262612576,-9078668914.333593,1326780407.703357
535289.1575333333,40143.06846378041,12.462901614747045,39197.13497941837,8663.172345799077,-8980213941.927052,1348541184.8448095
535414.7533,40146.995480564496,12.462114151444986,39201.0885328522,8663.481053014997,-8881749145.57852,1370302718.604801
535540.3490666667,40151.01040161665,12.461321600357207,39205.128704917486,8663.805139866889,-8783274311.188995,1392065046.639032
535665.9448333334,40155.116163366656,12.460524213120285,39209.25832569537,8664.145407503165,-8684789217.700142,1413828208.5564885
535791.5406,40159.31583214268,12.459722271833964,39213.48034753753,8664.502705814888,-8586293636.795111,1435592246.0377054
535917.1363666666,40163.61261129042,12.458916091865277,39217.79785159429,8664.87793689519,-8487787332.583452,1457357202.9613776
536042.7321333333,40168.009848754904,12.458106024916912,39222.214054754484,8665.272058781,-8389270061.269137,1479123125.5400028
536168.3279,40172.511045159496,12.45729246238661,39226.73231702652,8665.686089503173,-8290741570.8006115,1500890062.4652915
536293.9236666666,40177.11986241956,12.456475839047435,39231.356149392755,8666.121111473794,-8192201600.501734,1522658065.0641556
536419.5194333333,40181.84013293126,12.455656637082,39236.08922217156,8666.578276242466,-8093649880.68237,1544427187.4661608
536545.1152,40186.675869379476,12.454835390507508,39240.9353739245,8667.0588096567,-7995086132.22732,1566197486.7834096
536670.7109666667,40191.63127521262,12.454012690032613,39245.898620948785,8667.564017465314,-7896510066.162164,1587969023.3039176
536796.3067333333,40196.710755836,12.453189188391859,39250.983167398685,8668.095291407843,-7797921383.194506,1609741860.6996484
536921.9025,40201.918930580105,12.452365606208625,39256.19341608283,8668.654115837719,-7699319773.228969,1631516066.2504814
537047.4982666667,40207.26064550488,12.451542738443619,39261.5339799885,8669.24207493216,-7600704914.854191,1653291711.0855203
537173.0940333334,40212.74098710635,12.45072146149251,39267.00969458775,8669.860860547558,-7502076474.799928,1675068870.4432826
537298.6897999999,40218.365296998025,12.449902741003896,39272.62563098524,8670.512280785744,-7403434107.362224,1696847623.9524722
537424.2855666666,40224.139187645516,12.449087640497437,39278.387109971896,8671.198269343924,-7304777453.794464,1718628055.935204
537549.8813333333,40230.06855923997,12.448277330871418,39284.29971705442,8671.920895729287,-7206106141.6619425,1740410255.7347493
537675.4771,40236.159617803496,12.447473100900215,39290.36931853585,8672.682376428727,-7107419784.157402,1762194318.0700765
537801.0728666666,40242.41889462796,12.446676368834167,39296.602078728945,8673.48508713456,-7008717979.374824,1783980343.4197116
537926.6686333333,40248.85326715763,12.445888695228726,39303.00447839049,8674.33157613902,-6910000309.538487,1805768438.437699
538052.2644,40255.46998143599,12.445111797145364,39309.58333447198,8675.224579023701,-6811266340.184148,1827558716.4047537
538177.8601666667,40262.27667624794,12.444347563885078,39316.3458212897,8676.16703478525,-6712515619.2888775,1849351297.7180188
538303.4559333333,40269.28140910011,12.443598074435707,39323.299493225546,8677.162103555724,-6613747676.3458805,1871146310.4232302
538429.0517,40276.49268419513,12.442865616837864,39330.452309078566,8678.213186095425,-6514962021.380293,1892943890.7934997
538554.6474666666,40283.91948256922,12.442152709700911,39337.812658196824,8679.32394525803,-6416158143.901661,1914744183.9594073
538680.2432333333,40291.57129457794,12.441462126131007,39345.389388528776,8680.498329652726,-6317335511.788456,1936547344.5956213
538805.839,40299.458154931046,12.440796920368054,39353.191836744045,8681.740599756493,-6218493570.099628,1958353537.6698656
538931.4347666666,40307.5906804952,12.440160457468258,39361.22986058431,8683.05535676181,-6119631739.807804,1980162939.260723
539057.0305333333,40315.98011110226,12.439556446414688,39369.51387361634,8684.447574481837,-6020749416.448309,2001975737.4515297
539182.6263,40324.638353621376,12.4389889770906,39378.05488257082,8685.922634676886,-5921845968.677771,2023792133.308464
539308.2220666667,40333.57802957505,12.438462561610221,39386.864527462334,8687.48636621369,-5822920736.735566,2045612341.9519138
539433.8178333333,40342.81252660246,12.437982180570827,39395.95512469753,8689.145088523404,-5723973030.80086,2067436593.731297
539559.4136,40352.35605409769,12.437553334869135,39405.339713389454,8690.905659886452,-5625002129.237487,2089265135.5147538
539685.0093666667,40362.2237033766,12.437182103816289,39415.032105106424,8692.77553114342,-5526007276.718316,2111098232.1065416
539810.6051333334,40372.43151275191,12.436875210390872,39425.046937292536,8694.762805512511,-5426987682.2202015,2132936167.806562
539936.2008999999,40382.99653792338,12.436640094590386,39435.39973060328,8696.876305287213,-5327942516.879973,2154779248.1282682
540061.7966666666,40393.93692811649,12.436484995981438,39446.10695040305,8699.125646294395,-5228870911.701339,2176627801.69327
540187.3924333333,40405.2720084288,12.43641904670996,39457.18607266991,8701.521321115288,-5129771955.101926,2198482182.3233085
540312.9882,40417.0223688668,12.436452376418986,39468.65565454521,8704.074792211706,-5030644690.289087,2220342771.3529434
540438.5839666666,40429.209960575885,12.436596230736425,39480.535409749544,8706.79859626034,-4931488112.452516,2242209980.189382
540564.1797333333,40441.85819978066,12.43686310524356,39492.84628905869,8709.706461181671,-4832301165.7611685,2264084253.1493263
540689.7755,40454.9920799579,12.437266897121821,39505.61056599076,8712.813437560524,-4733082740.151589,2285966070.606731
540815.3712666667,40468.63829275863,12.437823077006497,39518.85192779324,8716.13604639595,-4633831667.894353,2307855952.489888
540940.9670333333,40482.82535817184,12.438548883958283,39532.59557173032,8719.692445393282,-4534546719.925282,2329754462.171454
541066.5628,40497.583764375515,12.439463546904067,39546.86830654968,8723.502616324902,-4435226601.928163,2351662210.8009567
541192.1585666667,40512.9461176424,12.440588536405638,39561.69865884273,8727.588576343294,-4335869950.156209,2373579862.1360936
541317.7543333333,40528.947302546505,12.441947851197604,39577.11698379231,8731.974616534904,-4236475326.980443,2395508137.9368396
541443.3501,40545.62465253894,12.44356834460368,39593.15557950967,8736.687571460703,-4137041216.1547794,2417447823.995197
541568.9458666666,40563.018130710036,12.445480096702576,39609.84880377986,8741.757123943136,-4037566017.7899985,2439399776.8834295
541694.5416333333,40581.17052020381,12.447716838981094,39627.23319153415,8747.216149932083,-3938048043.0323205,2461364931.515014
541820.1374,40600.12762327353,12.450316439190011,39645.34757072012,8753.10110891533,-3838485508.4472184,2483344309.6254206
541945.7331666667,40619.93846732202,12.453321455213954,39664.23317340226,8759.452486029173,-3738876530.115878,2505339029.294417
542071.3289333333,40640.655515409664,12.456779767980057,39683.93373784973,8766.315292764111,-3639219117.4608626,2527350315.647943
542196.9247,40662.33487757467,12.460745304754983,39704.495595989814,8773.739633933224,-3539511166.8297005,2549379512.895874
542322.5204666667,40685.036517812754,12.465278865596552,39725.967738847976,8781.781349348616,-3439750454.8811975,2571428097.8822455
542448.1162333334,40708.824449610096,12.470449067196794,39748.40185036334,8790.502739388965,-3339934631.8402658,2593497695.346693
542573.7119999999,40733.76691038757,12.47633341981208,39771.85229714545,8799.973384268345,-3240061214.714352,2615590095.119805
542699.3077666666,40759.936501943936,12.48301955431663,39796.376058185,8810.271067227233,-3140127580.599729,2637707271.5004306
542824.9035333333,40787.41027979321,12.490606617473334,39822.03257408431,8821.482811905771,-3040130960.251043,2659851405.0889874
542950.4993,40816.26976895277,12.499206854042884,39848.8834898437,8833.706043603108,-2940068432.1450453,2682024907.3763556
543076.0950666666,40846.60087699205,12.508947393985226,39876.992258419596,8847.049882657595,-2839936917.342339,2704230448.411159
543201.6908333333,40878.49366670083,12.519972261224266,39906.423563942415,8861.636575357921,-2739733175.5427675,2726470987.8863807
543327.2866,40912.041940263385,12.532444616510015,39937.2425134433,8877.603063005648,-2639453802.8448157,2748749809.9952974
543452.8823666667,40947.34257402051,12.546549239799981,39969.51353404022,8895.102682171155,-2539095231.8616276,2771070562.400802
543578.4781333333,40984.49452751233,12.5624952459037,40003.29889874814,8914.30697772431,-2438653735.0207567,2793437299.633137
543704.0739,41023.597432419185,12.580519009042025,40038.65678860777,8935.407593460028,-2338125432.086264,2815854531.167574
543829.6696666667,41064.74964644646,12.600887245071926,40075.6387822722,8958.618181291387,-2237506303.194008,2838327274.320328
543955.2654333333,41108.04563484475,12.623900161423174,40114.28664778898,8984.176236889893,-2136792208.9856293,2860861111.9177036
544080.8611999999,41153.57251968873,12.649894530714485,40154.62829729212,9012.344724853057,-2035978919.7613883,2883462254.413954
544206.4569666666,41201.40561715141,12.67924647060668,40196.67275734191,9043.41329743377,-1935062155.937092,2906137605.724992
544332.0527333333,41251.60277064876,12.712373615851504,40240.40401139958,9077.698835428111,-1834037642.4650893,2928894831.4689426
544457.6485,41304.197290434364,12.749736245923074,40285.773594711005,9115.544947111559,-1732901180.2255664,2951742427.51718
544583.2442666667,41359.18933900236,12.791836783080049,40332.69187716212,9157.319952985546,-1631648737.64959,2974689785.71762
544708.8400333333,41416.53567153772,12.839216906726316,40381.01807119071,9203.412767333954,-1530276565.9038618,2997747252.321467
544834.4358,41476.13777050683,12.892451355509598,40430.54916675229,9254.225976973405,-1428781340.7123213,3020926173.0161433
544960.0315666667,41537.8286243383,12.952137338226889,40481.0082405909,9310.165339568897,-1327160333.1297572,3044238916.580849
545085.6273333334,41601.35871081895,13.018878397655218,40532.03292388863,9371.624920100021,-1225411610.0956545,3067698867.1608067
545211.2231,41666.382164588256,13.093261640675466,40583.16523685974,9438.967212744054,-1123534263.1443822,3091320373.250945
545336.8188666666,41732.44461952529,13.175827557615728,40633.844478443054,9512.49792764487,-1021528660.0283179,3115118640.105851
545462.4146333333,41798.9747647122,13.267032305565614,40683.405316948345,9592.4357281113,-919396709.1490161,3139109552.0564504
545588.0104,41865.282123609926,13.36720340317344,40731.0835298374,9678.878125839843,-817142120.7726032,3163309412.8847656
545713.6061666666,41930.56378328051,13.476491281820381,40776.031800270575,9771.765951304676,-714770642.6252574,3187734596.8039737
545839.2019333333,41993.92254268908,13.59482092368694,40817.34738479747,9870.850165519552,-612290241.7494286,3212401110.338419
545964.7977,42054.39800928739,13.721849560729462,40854.11216061458,9975.66596731662,-509711201.1015254,3237324076.571582
546090.3934666667,42111.01045899135,13.856937586070876,40885.44353937389,10085.519741983999,-407046100.21749353,3262517166.945447
546215.9892333333,42162.814925757506,13.999139825266784,40910.55225862964,10199.493926544255,-304309656.0281504,3287992019.9406333
546341.585,42208.96044707293,14.147222641778376,40928.800694208825,10316.47302891345,-201518413.1903207,3313757697.3181005
546467.1807666667,42248.74736155695,14.299708930329638,40939.75383817626,10435.190908181667,-98690291.95069614,3339820233.5151286
546592.7765333334,42281.67478397656,14.454948418660454,40943.21515539084,10554.295584136964,4155977.627693537,3366182329.415145
546718.3722999999,42307.47135229694,14.611205966304885,40939.241467036656,10672.424294840057,107001487.9388878,3392843227.3357806
546843.9680666666,42326.10498964226,14.766757068708818,40928.13448560348,10788.279340218034,209827794.37986395,3419798781.875241
546969.5638333333,42337.77109165095,14.919978600735366,40910.410732757955,10900.695146919663,312617505.0971201,3447041715.925734
547095.1596,42342.86221041862,15.069424272586042,40886.75515393163,11008.688984295233,415354770.4050225,3474562028.4423203
